time,temperature,KE,PE,TE,P
0.0,0.8504115588725671,1.2756173383088507,-5.331648017167007,-4.056030678858156,-0.00792875941972726
0.005,0.8455989537681499,1.2683984306522247,-5.324424093576072,-4.056025662923847,0.019075268975487947
0.01,0.8312704030605353,1.2469056045908031,-5.302917333150496,-4.056011728559693,0.09808619677967723
0.015,0.8076789023252835,1.2115183534879252,-5.267499874599693,-4.055981521111767,0.22729694811567608
0.02,0.7753128607290338,1.1629692910935507,-5.218893704728132,-4.055924413634582,0.4029714629541449
0.025,0.7349970909801765,1.1024956364702647,-5.158323039035296,-4.055827402565032,0.6195323341398751
0.030000000000000002,0.6880027320523496,1.0320040980785246,-5.087681061619937,-4.055676963541412,0.8708023307282953
0.035,0.6361568145104809,0.9542352217657214,-5.009700071353666,-4.055464849587944,1.1467747118541003
0.04,0.5819035904166154,0.8728553856249232,-4.928049108563398,-4.0551937229384745,1.4344712025425441
0.045,0.5282480690157892,0.7923721035236839,-4.847254912614706,-4.054882809091022,1.71797314976256
0.049999999999999996,0.4785388331335611,0.7178082497003416,-4.772377598347396,-4.054569348647054,1.9802733031877457
0.05499999999999999,0.43608511546891504,0.6541276732033725,-4.708429351242999,-4.054301678039626,2.2049449083750705
0.05999999999999999,0.4036730253387861,0.6055095380081791,-4.659636984436978,-4.054127446428799,2.3780024915359252
0.06499999999999999,0.3831075740826932,0.5746613611240398,-4.628737767610932,-4.054076406486892,2.490239431047907
0.06999999999999999,0.37492313393121623,0.5623847008968244,-4.6165361667880225,-4.054151465891199,2.5388045689677363
0.075,0.3783549362661976,0.5675324043992964,-4.621861034767951,-4.054328630368655,2.527263649896009
0.08,0.39156558293810706,0.5873483744071606,-4.641917801302178,-4.054569426895017,2.464201863507273
0.085,0.4120312718191804,0.6180469077287707,-4.67287698076475,-4.054830073035979,2.3626333560141695
0.09000000000000001,0.4369721784434144,0.6554582676651216,-4.710533727326066,-4.055075459660944,2.2356519014293466
0.09500000000000001,0.4637266755946948,0.6955900133920422,-4.750870372723751,-4.055280359331709,2.096801702369883
0.10000000000000002,0.49002061222616883,0.7350309183392533,-4.790462011107841,-4.055431092768587,1.9571961140364236
0.10500000000000002,0.5141252673055998,0.7711879009583997,-4.826711850264874,-4.055523949306473,1.8260263815436357
0.11000000000000003,0.5349161457666741,0.8023742186500112,-4.857935556683327,-4.055561338033316,1.7098037650243478
0.11500000000000003,0.5518603087451649,0.8277904631177473,-4.883340063700443,-4.055549600582696,1.6113817096271594
0.12000000000000004,0.5649463912367509,0.8474195868551264,-4.9029202133759,-4.055500626520773,1.5317512448179644
0.12500000000000003,0.5745785982108059,0.8618678973162088,-4.91729477299337,-4.055426875677161,1.4689157593077635
0.13000000000000003,0.5814491979564667,0.8721737969347,-4.927514089981521,-4.055340293046822,1.4200227733756872
0.13500000000000004,0.586404299103986,0.8796064486559789,-4.934860097840086,-4.055253649184107,1.3816140039330884
0.14000000000000004,0.5903231314712544,0.8854846972068815,-4.940660069917109,-4.055175372710226,1.348687755062929
0.14500000000000005,0.594017951379049,0.8910269270685736,-4.9461390319650365,-4.0551121048964625,1.317862812390823
0.15000000000000005,0.5981642956702845,0.8972464435054268,-4.9523135150562645,-4.055067071550838,1.285841026922665
0.15500000000000005,0.6032620260010184,0.9048930390015276,-4.95993292582395,-4.0550398868224224,1.2501182589164876
0.16000000000000006,0.6096214192800141,0.9144321289200212,-4.969462065927916,-4.055029937007895,1.2087517168901705
0.16500000000000006,0.6173690399131821,0.9260535598697731,-4.981090272430359,-4.055036712560586,1.161070975978814
0.17000000000000007,0.6264655454564508,0.9396983181846762,-4.994754282703022,-4.0550559645183455,1.1074119652330265
0.17500000000000007,0.6367318172890086,0.9550977259335129,-5.010182961511574,-4.055085235578061,1.048650326707944
0.18000000000000008,0.6478824333610993,0.971823650041649,-5.026945283962636,-4.0551216339209875,0.9854379122731066
0.18500000000000008,0.6595599239441933,0.98933988591629,-5.044501028958715,-4.055161143042425,0.9202540959774281
0.19000000000000009,0.6713688932977656,1.0070533399466484,-5.062255123500588,-4.055201783553939,0.8548428439986326
0.1950000000000001,0.6829122202328951,1.0243683303493427,-5.07960871142494,-4.055240381075597,0.7910533366843213
0.2000000000000001,0.6938233168366111,1.0407349752549166,-5.096008480504878,-4.0552735052499616,0.7307064801324445
0.2050000000000001,0.703795159242835,1.0556927388642525,-5.110992330093439,-4.055299591229186,0.6752886892824566
0.2100000000000001,0.7126064963435087,1.068909744515263,-5.124225263228488,-4.0553155187132255,0.625907745354244
0.2150000000000001,0.7201450537229364,1.0802175805844045,-5.135539174641741,-4.055321594057336,0.5833331827473329
0.2200000000000001,0.7264313837475566,1.0896470756213348,-5.144960784058421,-4.055313708437087,0.5474939324923022
0.22500000000000012,0.7316328975855761,1.0974493463783643,-5.1527414478141536,-4.055292101435789,0.5170833893471758
0.23000000000000012,0.7360657495846292,1.104098624376944,-5.159355714353972,-4.055257089977028,0.49064469065466615
0.23500000000000013,0.7401774629975012,1.1102661944962517,-5.165479477509129,-4.055213283012876,0.4666534061633374
0.24000000000000013,0.7444899228371908,1.1167348842557863,-5.171907135703118,-4.055172251447332,0.4418210156551289
0.24500000000000013,0.7494924596773361,1.1242386895160041,-5.1793870747862165,-4.055148385270212,0.4139269367304791
0.2500000000000001,0.7554885640823941,1.1332328461235912,-5.18838746452455,-4.055154618400959,0.3819357190374215
0.2550000000000001,0.7624861170640611,1.1437291755960917,-5.198917875844882,-4.05518870024879,0.3454967895482446
0.2600000000000001,0.7702123052065605,1.1553184578098408,-5.210557177674637,-4.055238719864796,0.3059776352437072
0.2650000000000001,0.7782323153945151,1.1673484730917725,-5.222637583350962,-4.0552891102591895,0.26580957123333065
0.27000000000000013,0.7860953457012727,1.1791430185519092,-5.234472273703951,-4.055329255152042,0.22669594348215588
0.27500000000000013,0.7934240819127077,1.1901361228690617,-5.245498553295536,-4.055362430426475,0.19074283671782133
0.28000000000000014,0.7999188318887537,1.1998782478331305,-5.255270247946183,-4.055392000113053,0.1592179021324499
0.28500000000000014,0.8053180131797546,1.2079770197696318,-5.2634011410233645,-4.055424121253733,0.13368457051690236
0.29000000000000015,0.8093792167425244,1.2140688251137868,-5.269519401506656,-4.05545057639287,0.11536983708571114
0.29500000000000015,0.811917516248579,1.2178762743728684,-5.273341822425333,-4.055465548052465,0.10515271440355922
0.30000000000000016,0.8128754426072168,1.219313163910825,-5.27477687712823,-4.055463713217405,0.10322197502622832
0.30500000000000016,0.8123612312079819,1.2185418468119729,-5.273988243489617,-4.055446396677644,0.10934184903025568
0.31000000000000016,0.8106353839408398,1.2159530759112598,-5.271374543647201,-4.0554214677359415,0.12125869055957783
0.31500000000000017,0.8080520773119876,1.2120781159679814,-5.267472986892162,-4.0553948709241805,0.13791544983237053
0.3200000000000002,0.8049979907533514,1.207496986130027,-5.262864144510141,-4.055367158380114,0.15707382340843407
0.3250000000000002,0.8018720503924224,1.2028080755886335,-5.258147330088229,-4.055339254499596,0.1765431051322966
0.3300000000000002,0.7990597594149582,1.1985896391224373,-5.253906479741329,-4.055316840618892,0.19447169032971234
0.3350000000000002,0.7968602623073479,1.1952903934610217,-5.250602387568393,-4.055311994107371,0.20927212216532493
0.3400000000000002,0.7953857641549721,1.193078646232458,-5.248409589111643,-4.055330942879185,0.22045011944182807
0.3450000000000002,0.7945343908875838,1.1918015863313758,-5.247159689664874,-4.055358103333497,0.22833701868689216
0.3500000000000002,0.7941219010428592,1.1911828515642888,-5.246553310498865,-4.0553704589345765,0.23337771877143088
0.3550000000000002,0.7940864315083992,1.1911296472625987,-5.246485713825834,-4.055356066563235,0.2362127094274301
0.3600000000000002,0.7945664289224378,1.1918496433836567,-5.247183285387631,-4.055333642003974,0.23567883543759915
0.3650000000000002,0.7957407850318031,1.1936111775477047,-5.248945624714367,-4.055334447166662,0.23148332887163836
0.3700000000000002,0.797583371555326,1.196375057332989,-5.25173899419537,-4.05536393686238,0.22331818045917984
0.3750000000000002,0.7998160744800841,1.199724111720126,-5.255119569798206,-4.055395458078079,0.21310157592338874
0.3800000000000002,0.802121064914063,1.2031815973710946,-5.2585855337808765,-4.055403936409782,0.20189051376543377
0.38500000000000023,0.8043780321825938,1.2065670482738908,-5.261952021081376,-4.0553849728074844,0.19041576726827908
0.39000000000000024,0.8067147130918804,1.2100720696378204,-5.26542331479262,-4.0553512451547995,0.17876162975216514
0.39500000000000024,0.8093861992917231,1.2140792989375846,-5.269404117330376,-4.055324818392792,0.16568293603001139
0.40000000000000024,0.8125853261657677,1.2188779892486516,-5.274202185183822,-4.05532419593517,0.1498178236363667
0.40500000000000025,0.8162729236111463,1.2244093854167195,-5.279765107946433,-4.055355722529714,0.13223613475083695
0.41000000000000025,0.820099882186402,1.2301498232796029,-5.285566519905653,-4.05541669662605,0.11426992186708917
0.41500000000000026,0.8234453067251944,1.2351679600877916,-5.2906595147409785,-4.055491554653187,0.09936821457737632
0.42000000000000026,0.825570803752244,1.2383562056283661,-5.293914809800109,-4.055558604171742,0.09039560562444215
0.42500000000000027,0.8258472591213194,1.2387708886819793,-5.294364306073055,-4.0555934173910755,0.09032611766965903
0.43000000000000027,0.8239829279363518,1.2359743919045276,-5.291555424577717,-4.055581032673189,0.10069025537720455
0.4350000000000003,0.8201676852818961,1.230251527922844,-5.285773873389065,-4.055522345466221,0.12086695131445735
0.4400000000000003,0.8150694037060563,1.2226041055590844,-5.278036917163378,-4.055432811604294,0.14748453010023
0.4450000000000003,0.809672464557968,1.214508696836952,-5.269845176625838,-4.055336479788886,0.17588909560061738
0.4500000000000003,0.8050259556683661,1.207538933502549,-5.262796943843454,-4.055258010340904,0.20085714047431924
0.4550000000000003,0.8019973354690118,1.2029960032035176,-5.258208155111096,-4.055212151907578,0.21814232433700187
0.4600000000000003,0.8011100815965283,1.2016651223947925,-5.256868849174725,-4.055203726779933,0.22607479802968544
0.4650000000000003,0.8024715522477593,1.203707328371639,-5.2589408776739734,-4.055233549302335,0.22352472182789956
0.4700000000000003,0.8057511062056535,1.2086266593084802,-5.263926716803109,-4.055300057494629,0.21204087723047083
0.4750000000000003,0.8102193389597873,1.2153290084396808,-5.270718758040343,-4.055389749600662,0.19557152757674173
0.4800000000000003,0.8148901234153709,1.2223351851230564,-5.277817693886832,-4.055482508763776,0.17870752329980494
0.4850000000000003,0.8187402009006536,1.2281103013509802,-5.28366922994933,-4.055558928598351,0.1667414580602835
0.4900000000000003,0.8209087936572611,1.2313631904858917,-5.28697318765861,-4.055609997172718,0.1630905228982829
0.49500000000000033,0.8208289696794627,1.2312434545191941,-5.286870808220441,-4.055627353701247,0.17078560551565208
0.5000000000000003,0.8183084644519097,1.2274626966778646,-5.283070023291754,-4.055607326613889,0.19055993491388418
0.5050000000000003,0.8135770859107904,1.2203656288661855,-5.275914537996274,-4.055548909130089,0.22180695535630807
0.5100000000000003,0.807276637054146,1.2109149555812189,-5.266377714733201,-4.055462759151982,0.2607922810041856
0.5150000000000003,0.8003243961338006,1.2004865942007008,-5.2558652210449175,-4.055378626844217,0.30356566392536655
0.5200000000000004,0.7936230551869603,1.1904345827804403,-5.245763615245093,-4.055329032464653,0.3452288741199112
0.5250000000000004,0.7877526077139205,1.1816289115708807,-5.23695241937385,-4.055323507802969,0.3825339933247844
0.5300000000000004,0.7828918958333314,1.1743378437499972,-5.22967481740884,-4.055336973658844,0.41460292192997816
0.5350000000000004,0.7790192205504443,1.1685288308256663,-5.223866368016772,-4.055337537191106,0.44095159556192376
0.5400000000000004,0.7761819295463778,1.1642728943195666,-5.219587195608957,-4.05531430128939,0.46094272868088904
0.5450000000000004,0.774631474801016,1.161947212201524,-5.217219910252704,-4.055272698051181,0.4730449099332359
0.5500000000000004,0.7747684190130033,1.162152628519505,-5.217384605956999,-4.0552319774374945,0.47503611034149096
0.5550000000000004,0.7769642553287417,1.1654463829931125,-5.220659926316762,-4.05521354332365,0.4655441615320977
0.5600000000000004,0.7813575360687525,1.1720363041031288,-5.227268099427011,-4.055231795323882,0.44363413641203875
0.5650000000000004,0.7877266343284919,1.1815899514927377,-5.2368739352834215,-4.055283983790684,0.41106393318964884
0.5700000000000004,0.7955136507172562,1.1932704760758843,-5.2486245480128275,-4.055354071936943,0.3702675418200566
0.5750000000000004,0.8039770433052983,1.2059655649579475,-5.261386724350775,-4.055421159392828,0.3250294409833031
0.5800000000000004,0.8123794642445964,1.2185691963668945,-5.2740428478193735,-4.055473651452479,0.2794663713088589
0.5850000000000004,0.820114030751544,1.230171046127316,-5.285680315966802,-4.055509269839487,0.2361330237351421
0.5900000000000004,0.8267393580704203,1.2401090371056305,-5.29563986754823,-4.0555308304426,0.19829056700048941
0.5950000000000004,0.831969856910448,1.247954785365672,-5.303498491146096,-4.055543705780424,0.16749248334041672
0.6000000000000004,0.83564710139205,1.253470652088075,-5.309019697574039,-4.055549045485964,0.14431732712854217
0.6050000000000004,0.8377152092711357,1.2565728139067036,-5.3121211724269575,-4.055548358520254,0.1290096906132343
0.6100000000000004,0.8382067553510054,1.2573101330265082,-5.312853320994168,-4.05554318796766,0.12169995984196036
0.6150000000000004,0.83722492216907,1.255837383253605,-5.3113704279760166,-4.055533044722412,0.12161190175609382
0.6200000000000004,0.834955274692893,1.2524329120393396,-5.307942068943458,-4.055509156904118,0.1286484635556887
0.6250000000000004,0.8317150640814631,1.2475725961221946,-5.303042096182889,-4.055469500060694,0.1410731079284372
0.6300000000000004,0.8279921555635203,1.2419882333452805,-5.297399739584824,-4.055411506239543,0.1563331253016811
0.6350000000000005,0.8244166759374751,1.2366250139062127,-5.291975447123177,-4.055350433216963,0.170834481047055
0.6400000000000005,0.8216303482190428,1.2324455223285642,-5.287751696050514,-4.0553061737219505,0.18195925241433353
0.6450000000000005,0.8200773813641202,1.2301160720461803,-5.285414132583702,-4.055298060537521,0.18767803806168243
0.6500000000000005,0.8198262475703878,1.2297393713555815,-5.285074043561635,-4.055334672206054,0.18745789938366075
0.6550000000000005,0.8205237409117814,1.230785611367672,-5.286188865215061,-4.0554032538473885,0.18262965928050806
0.6600000000000005,0.821509580687983,1.2322643710319745,-5.287743128404355,-4.05547875737238,0.1766091423677228
0.6650000000000005,0.8220463622679732,1.2330695434019598,-5.288607335588791,-4.055537792186831,0.17295633819913353
0.6700000000000005,0.8215677276611489,1.2323515914917234,-5.287912283039031,-4.055560691547307,0.17413748226122233
0.6750000000000005,0.8198648667864825,1.2297973001797238,-5.285339454242247,-4.055542154062523,0.18091113150041832
0.6800000000000005,0.8171582074663881,1.2257373111995822,-5.28122366124812,-4.055486350048538,0.19274327226223537
0.6850000000000005,0.8140210304567381,1.221031545685107,-5.276447623389011,-4.055416077703904,0.20644014841419006
0.6900000000000005,0.8111735421251509,1.2167603131877263,-5.27211734725346,-4.055357034065734,0.21932100298080387
0.6950000000000005,0.8092144741006174,1.2138217111509262,-5.269154635876769,-4.055332924725843,0.22815639545038813
0.7000000000000005,0.8083909973254113,1.212586495988117,-5.267938103157699,-4.055351607169583,0.23143901142803835
0.7050000000000005,0.8085348384086474,1.2128022576129711,-5.268200653045272,-4.055398395432301,0.23052106049613091
0.7100000000000005,0.8091929328092818,1.2137893992139228,-5.269237125430203,-4.05544772621628,0.22726929919325478
0.7150000000000005,0.8098645220841477,1.2147967831262214,-5.270273279481977,-4.055476496355755,0.22374547289335778
0.7200000000000005,0.810233087862746,1.215349631794119,-5.2708219180211,-4.055472286226981,0.22174911037177703
0.7250000000000005,0.810301181343047,1.2154517720145706,-5.270887487489052,-4.055435715474482,0.22104024576743453
0.7300000000000005,0.8103806356259183,1.2155709534388774,-5.270953675994906,-4.055382722556028,0.22009998946933979
0.7350000000000005,0.8109405719283762,1.2164108578925643,-5.271747753329604,-4.05533689543704,0.2176674526535567
0.7400000000000005,0.8123804264149471,1.2185706396224207,-5.273889910467791,-4.055319270845371,0.2104375358641199
0.7450000000000006,0.8148450525144616,1.2222675787716923,-5.2776018889467755,-4.055334310175083,0.1983155355661143
0.7500000000000006,0.8181710449354291,1.2272565674031437,-5.282629399513726,-4.0553728321105815,0.182467452596778
0.7550000000000006,0.821978867675604,1.232968301513406,-5.288381557705626,-4.05541325619222,0.1642088551741312
0.7600000000000006,0.8258431992203177,1.2387647988304766,-5.294206727709434,-4.055441928878957,0.1460271251216128
0.7650000000000006,0.8294442142636238,1.2441663213954357,-5.29961847662138,-4.055452155225944,0.1288294938989002
0.7700000000000006,0.8326402097963665,1.2489603146945498,-5.304404996105482,-4.055444681410933,0.11403162518950816
0.7750000000000006,0.8354482860871112,1.2531724291306667,-5.308602572071509,-4.055430142940842,0.10133572306584437
0.7800000000000006,0.8379611874824089,1.2569417812236134,-5.312360954642194,-4.0554191734185805,0.09063081192843858
0.7850000000000006,0.840244440575487,1.2603666608632305,-5.315787201967771,-4.0554205411045405,0.0817963448005179
0.7900000000000006,0.8422580455076777,1.2633870682615165,-5.318822671035081,-4.0554356027735645,0.07496331962518044
0.7950000000000006,0.8438437281112213,1.265765592166832,-5.321223478757565,-4.055457886590733,0.07086148766377665
0.8000000000000006,0.8447778901621702,1.2671668352432552,-5.322646493199987,-4.055479657956732,0.07047072388894249
0.8050000000000006,0.8448475220370901,1.2672712830556352,-5.322767385690225,-4.05549610263459,0.07481385464297163
0.8100000000000006,0.8439045991413401,1.2658568987120102,-5.321363541038701,-4.05550664232669,0.08474995137094876
0.8150000000000006,0.841887122886674,1.262830684330011,-5.318341489179784,-4.0555108048497726,0.10052199427647568
0.8200000000000006,0.8388202563942726,1.258230384591409,-5.313738356536891,-4.055507971945483,0.12144902986750594
0.8250000000000006,0.8348061190907623,1.2522091786361433,-5.3077063872508585,-4.055497208614716,0.1469106242005931
0.8300000000000006,0.8300334309080729,1.2450501463621095,-5.300527976100529,-4.05547782973842,0.1759011856060439
0.8350000000000006,0.8247940998310584,1.2371911497465875,-5.292639806817379,-4.055448657070791,0.20703656884908012
0.8400000000000006,0.8194650999435746,1.229197649915362,-5.284613801681407,-4.055416151766044,0.23817376999903167
0.8450000000000006,0.8144339709205993,1.221650956380899,-5.2770456822384375,-4.055394725857538,0.26718490641437886
0.8500000000000006,0.8099807876985496,1.2149711815478246,-5.270361170975648,-4.055389989427823,0.2933946852178987
0.8550000000000006,0.8061968260836635,1.2092952391254952,-5.26469667265252,-4.055401433527025,0.3158674695254561
0.8600000000000007,0.8030061157371823,1.2045091736057734,-5.259928049647429,-4.055418876041655,0.33500608375132546
0.8650000000000007,0.8002554343662265,1.2003831515493397,-5.25581431202877,-4.05543116047943,0.3515091571985302
0.8700000000000007,0.7977887617964974,1.196683142694746,-5.25212611034704,-4.055442967652294,0.3660065568809179
