time,temperature,KE,PE,TE,P
0.0,0.8503819923958033,1.2755729885937048,-5.529765946690095,-4.2541929580963895,9.303160856178138
0.005,0.8427076851433579,1.2640615277150369,-5.518230011314271,-4.254168483599234,9.418653964527879
0.01,0.820116589310193,1.2301748839652895,-5.483532163478446,-4.253357279513157,9.757126350741865
0.015,0.7835518515809998,1.1753277773714996,-5.426273410736952,-4.250945633365452,10.306072146854042
0.02,0.734677949163431,1.1020169237451465,-5.350635681899693,-4.248618758154547,11.041544119119475
0.025,0.676036229565123,1.0140543443476846,-5.260874065189199,-4.246819720841515,11.92676409946991
0.030000000000000002,0.6111788508606968,0.9167682762910453,-5.161700066481684,-4.2449317901906385,12.909675421574601
0.035,0.5446397261375904,0.8169595892063856,-5.060649411249334,-4.243689822042948,13.921806618489486
0.04,0.48165256481126145,0.7224788472168922,-4.965037152015357,-4.242558304798465,14.883071422759105
0.045,0.42756362005946924,0.6413454300892039,-4.8828450673219725,-4.241499637232769,15.710165141568915
0.049999999999999996,0.38700070800819913,0.5805010620122987,-4.821277120407602,-4.240776058395304,16.330024514438445
0.05499999999999999,0.3630232872773189,0.5445349309159784,-4.785037050419594,-4.240502119503615,16.694080634540466
0.05999999999999999,0.3565462305076824,0.5348193457615237,-4.7752323927676485,-4.240413047006125,16.78801587582827
0.06499999999999999,0.36625400596880286,0.5493810089532043,-4.790031576075825,-4.2406505671226205,16.63289505567144
0.06999999999999999,0.38902026263246126,0.5835303939486919,-4.824647880829003,-4.241117486880311,16.278369482219734
0.075,0.4206510823020047,0.6309766234530071,-4.872642653767233,-4.241666030314226,15.790366411884168
0.08,0.4566958277513227,0.6850437416269841,-4.92736478605588,-4.242321044428895,15.237963181006089
0.085,0.4931193087096965,0.7396789630645447,-4.982382021224742,-4.242703058160197,14.683116326874433
0.09000000000000001,0.5267462252521006,0.7901193378781509,-5.033077722733807,-4.242958384855656,14.1737258098291
0.09500000000000001,0.5554702660905754,0.833205399135863,-5.076360605161846,-4.243155206025984,13.741016707067955
0.10000000000000002,0.5782702663272277,0.8674053994908415,-5.110886906733061,-4.243481507242219,13.399527091529148
0.10500000000000002,0.595091335531317,0.8926370032969755,-5.136376530599637,-4.243739527302663,13.149324928409444
0.11000000000000003,0.6066409704109328,0.9099614556163992,-5.1538591181759,-4.2438976625595,12.979028965362197
0.11500000000000003,0.6141425536791913,0.9212138305187869,-5.165260106282996,-4.244046275764208,12.86961484262957
0.12000000000000004,0.6190832927739743,0.9286249391609614,-5.172612063159861,-4.2439871239989,12.798394835944666
0.12500000000000003,0.6229884487666192,0.9344826731499287,-5.17882248455504,-4.244339811405111,12.742046341747791
0.13000000000000003,0.6272326673953015,0.9408490010929522,-5.185428638967563,-4.244579637874611,12.680120409050241
0.13500000000000004,0.6329041891644124,0.9493562837466186,-5.194112148680822,-4.244755864934203,12.596385245123434
0.14000000000000004,0.6407280056344937,0.9610920084517405,-5.206379123908207,-4.245287115456467,12.480051122265923
0.14500000000000005,0.6510425570687519,0.9765638356031279,-5.222197660878186,-4.245633825275059,12.326564755718186
0.15000000000000005,0.6638319965692955,0.9957479948539433,-5.241786950260588,-4.246038955406645,12.136452487869274
0.15500000000000005,0.6788026444403584,1.0182039666605376,-5.264839598367175,-4.246635631706637,11.914494457807033
0.16000000000000006,0.6954796877055295,1.0432195315582942,-5.290381813327922,-4.2471622817696275,11.668278412608261
0.16500000000000006,0.7133117353771519,1.069967603065728,-5.317488950592866,-4.247521347527138,11.406368447990088
0.17000000000000007,0.7317683133745814,1.097652470061872,-5.345567011339339,-4.247914541277467,11.136803114841664
0.17500000000000007,0.7504083635903123,1.1256125453854684,-5.373997382981423,-4.248384837595954,10.866200112630123
0.18000000000000008,0.7689079226842501,1.1533618840263753,-5.402129612232287,-4.2487677282059115,10.59929775982658
0.18500000000000008,0.7870476241516748,1.1805714362275124,-5.429914873521412,-4.2493434372939,10.338957105937919
0.19000000000000009,0.8046655741036021,1.206998361155403,-5.456875570648335,-4.249877209492932,10.087390276195823
0.1950000000000001,0.8216011630887889,1.2324017446331834,-5.483116201994118,-4.250714457360935,9.84676328434537
0.2000000000000001,0.8376668742548412,1.2565003113822617,-5.507526570726543,-4.251026259344281,9.620332377363752
0.2050000000000001,0.8526845968135714,1.2790268952203572,-5.530610052449746,-4.251583157229389,9.410849536898265
0.2100000000000001,0.866579624815678,1.299869437223517,-5.551990258868008,-4.252120821644491,9.219946941955257
0.2150000000000001,0.8794834359035529,1.3192251538553295,-5.571846375199945,-4.252621221344615,9.045730882550112
0.2200000000000001,0.8917733233803595,1.3376599850705393,-5.590668757159818,-4.253008772089279,8.88201470135095
0.22500000000000012,0.9039671311216814,1.3559506966825219,-5.60950889844611,-4.253558201763588,8.719813299413245
0.23000000000000012,0.9164812853183972,1.374721927977596,-5.628655350619004,-4.253933422641408,8.55187461710921
0.23500000000000013,0.9293989216854261,1.3940983825281392,-5.6486905810459564,-4.254592198517818,8.376371892494832
0.24000000000000013,0.9424100152015469,1.4136150228023203,-5.668730032524519,-4.255115009722198,8.198585885934456
0.24500000000000013,0.954946834784428,1.432420252176642,-5.68805195745167,-4.255631705275027,8.02779056297976
0.2500000000000001,0.9663996953647566,1.449599543047135,-5.7057454759834485,-4.256145932936313,7.873698356666889
0.2550000000000001,0.9762845786701567,1.464426868005235,-5.720795516786184,-4.25636864878095,7.743780995409878
0.2600000000000001,0.9843099442382927,1.476464916357439,-5.733151006775733,-4.256686090418294,7.642023244800924
0.2650000000000001,0.9903554366231614,1.485533154934742,-5.742833481369527,-4.257300326434786,7.569916886333721
0.27000000000000013,0.9944558808717872,1.4916838213076808,-5.749305590403877,-4.257621769096196,7.527388326992486
0.27500000000000013,0.9968869923133074,1.495330488469961,-5.753196949063516,-4.257866460593554,7.510672346792086
0.28000000000000014,0.9983165983729937,1.4974748975594905,-5.755522576506503,-4.258047678947013,7.5092752727055805
0.28500000000000014,0.9997412011352466,1.49961180170287,-5.757772908026109,-4.258161106323239,7.50600901499098
0.29000000000000015,1.001982479044065,1.5029737185660974,-5.761409236405081,-4.258435517838984,7.485737516294509
0.29500000000000015,1.005059818334921,1.5075897275023817,-5.766287664712084,-4.2586979372097025,7.447749050330232
0.30000000000000016,1.008063522029361,1.5120952830440415,-5.771314799552291,-4.25921951650825,7.407953690846935
0.30500000000000016,1.0096965101133104,1.5145447651699655,-5.774147297368854,-4.2596025321988895,7.389354999059077
0.31000000000000016,1.0090476726899156,1.5135715090348734,-5.773327975531236,-4.259756466496363,7.408029358478117
0.31500000000000017,1.0061059203936675,1.5091588805905014,-5.769139175774927,-4.259980295184426,7.464021879962701
0.3200000000000002,1.0017297884386,1.5025946826579,-5.7627882131489745,-4.260193530491074,7.542320598498177
0.3250000000000002,0.9971098896250988,1.4956648344376484,-5.756108591294995,-4.260443756857348,7.622828149808047
0.3300000000000002,0.9932300632050921,1.489845094807638,-5.750365044893796,-4.260519950086158,7.690245020565467
0.3350000000000002,0.9907179063100015,1.4860768594650022,-5.74679613111268,-4.260719271647677,7.735321663852244
0.3400000000000002,0.9898907952408245,1.4848361928612366,-5.7456291813620695,-4.260792988500833,7.753438546981143
0.3450000000000002,0.9907305885980416,1.4860958828970625,-5.746946228024955,-4.260850345127892,7.744747460606014
0.3500000000000002,0.9928161932491394,1.4892242898737091,-5.750149322033626,-4.260925032159918,7.715733329358366
0.3550000000000002,0.9953495794568105,1.4930243691852156,-5.753926355296749,-4.260901986111534,7.679047500608881
0.3600000000000002,0.9973274727854545,1.495991209178182,-5.756975661753054,-4.260984452574872,7.650765215784128
0.3650000000000002,0.9978391284314054,1.4967586926471081,-5.757788009871056,-4.261029317223947,7.645926643780943
0.3700000000000002,0.9963984096277521,1.4945976144416282,-5.755860289842833,-4.261262675401205,7.672766520417712
0.3750000000000002,0.9931766117928345,1.4897649176892516,-5.7510635741226475,-4.261298656433396,7.728962517687295
0.3800000000000002,0.9890059583027633,1.4835089374541448,-5.744793890529579,-4.2612849530754335,7.800908141826391
0.38500000000000023,0.9850852323863137,1.4776278485794705,-5.738865061279454,-4.261237212699983,7.8687658701695105
0.39000000000000024,0.9825062402428939,1.4737593603643409,-5.7350240772981556,-4.261264716933814,7.914528637063051
0.39500000000000024,0.9818342404309565,1.4727513606464346,-5.7340341659720435,-4.261282805325609,7.929276755229579
0.40000000000000024,0.9829612087076602,1.4744418130614905,-5.7359887026669565,-4.261546889605467,7.915294338554432
0.40500000000000025,0.9852790179658741,1.477918526948811,-5.739751006182294,-4.261832479233482,7.88324974466083
0.41000000000000025,0.9880085780963116,1.4820128671444674,-5.743807804227269,-4.261794937082802,7.846305368385782
0.41500000000000026,0.9905107365980589,1.4857661048970883,-5.747760052040733,-4.261993947143645,7.814581009602805
0.42000000000000026,0.9924755407797659,1.4887133111696487,-5.750509086570396,-4.261795775400747,7.7928641253814055
0.42500000000000027,0.9939214161287675,1.4908821241931511,-5.752720468437134,-4.261838344243983,7.779822959100582
0.43000000000000027,0.9950025643821141,1.492503846573171,-5.754263854453744,-4.261760007880572,7.7723940088589485
0.4350000000000003,0.9958061172996053,1.493709175949408,-5.755381274694044,-4.261672098744636,7.769094177262176
0.4400000000000003,0.9963441608634024,1.4945162412951036,-5.756222183542128,-4.2617059422470245,7.770305213237342
0.4450000000000003,0.9967098053617659,1.495064708042649,-5.756631694575805,-4.261566986533157,7.775219992812114
0.4500000000000003,0.9971893420981305,1.4957840131471958,-5.75741611674018,-4.2616321035929845,7.779177436253711
0.4550000000000003,0.9981933711831846,1.497290056774777,-5.759036755625189,-4.261746698850413,7.775225109717406
0.4600000000000003,1.0000593145003607,1.500088971750541,-5.7619391700957525,-4.261850198345211,7.757280061831388
0.4650000000000003,1.0028122792085903,1.5042184188128853,-5.766068043069753,-4.261849624256867,7.724175628395998
0.4700000000000003,1.0059886568751264,1.5089829853126897,-5.770972150065191,-4.261989164752502,7.682688658052357
0.4750000000000003,1.0086420298631795,1.5129630447947693,-5.775205747208364,-4.262242702413595,7.648036865591654
0.4800000000000003,1.0095955481429206,1.514393322214381,-5.777069398075,-4.262676075860618,7.639645045427893
0.4850000000000003,1.0078610882905548,1.511791632435832,-5.774658186116513,-4.262866553680682,7.674162053279822
0.4900000000000003,1.0030313376159148,1.5045470064238722,-5.767584366813145,-4.263037360389272,7.758401717043166
0.49500000000000033,0.9954620427086924,1.4931930640630386,-5.755971466979067,-4.262778402916028,7.886926788968877
0.5000000000000003,0.9861812155347347,1.479271823302102,-5.742031460250717,-4.262759636948616,8.04293620077806
0.5050000000000003,0.9765852856048016,1.4648779284072024,-5.727502437456151,-4.2626245090489485,8.203934987825665
0.5100000000000003,0.9680159082153659,1.4520238623230488,-5.714681396225743,-4.262657533902694,8.348142792517061
0.5150000000000003,0.9613702822471824,1.4420554233707734,-5.704728278259247,-4.262672854888474,8.461690882686318
0.5200000000000004,0.9569816031800906,1.435472404770136,-5.697951423240848,-4.262479018470713,8.540507511487975
0.5250000000000004,0.954838210708668,1.432257316063002,-5.6946382352663925,-4.26238091920339,8.585810903940391
0.5300000000000004,0.9548639483321201,1.4322959224981802,-5.694702824923381,-4.262406902425201,8.598858242639249
0.5350000000000004,0.9569575337251284,1.4354363005876927,-5.697833062221005,-4.262396761633312,8.580358859558473
0.5400000000000004,0.9608088043581234,1.4412132065371852,-5.70379828756202,-4.2625850810248345,8.534223688077729
0.5450000000000004,0.9657695860355082,1.4486543790532624,-5.71129841411798,-4.262644035064718,8.47062536590629
0.5500000000000004,0.970973056336132,1.4564595845041979,-5.719209893456806,-4.262750308952608,8.40347989273219
0.5550000000000004,0.9756156434470978,1.4634234651706468,-5.726304024440839,-4.262880559270193,8.345678306296042
0.5600000000000004,0.9791836293578963,1.4687754440368443,-5.731694304344076,-4.262918860307232,8.305109856587347
0.5650000000000004,0.9815246089056043,1.4722869133584064,-5.735228401459675,-4.262941488101268,8.28368773492974
0.5700000000000004,0.9827831355624279,1.4741747033436419,-5.737100043417827,-4.262925340074186,8.278756384976472
0.5750000000000004,0.9832935968802385,1.4749403953203577,-5.738073806775681,-4.263133411455323,8.284634560946452
0.5800000000000004,0.9834623719049205,1.4751935578573807,-5.738369183132388,-4.263175625275007,8.294757562404351
0.5850000000000004,0.9836207780279674,1.475431167041951,-5.73851805613043,-4.26308688908848,8.303638059905174
0.5900000000000004,0.9839104064904826,1.475865609735724,-5.739049217703353,-4.263183607967629,8.308930885580994
0.5950000000000004,0.9842703899521803,1.4764055849282705,-5.7395548632555125,-4.263149278327242,8.311909906388394
0.6000000000000004,0.9845128143656041,1.4767692215484063,-5.740098530941274,-4.2633293093928675,8.315491578082343
0.6050000000000004,0.9843925541573534,1.47658883123603,-5.739862746486829,-4.2632739152507995,8.323517038152486
0.6100000000000004,0.9836241150203588,1.4754361725305383,-5.738856844525038,-4.263420671994499,8.34005716962058
0.6150000000000004,0.9818884656110085,1.4728326984165128,-5.736095597310991,-4.263262898894478,8.370401316120846
0.6200000000000004,0.9789006836055802,1.4683510254083703,-5.731559135252818,-4.263208109844448,8.41944969835881
0.6250000000000004,0.9746002117307706,1.4619003175961558,-5.725128319860094,-4.263228002263938,8.489117311257356
0.6300000000000004,0.9694151596955104,1.4541227395432657,-5.71728969350038,-4.263166953957114,8.573506718262186
0.6350000000000005,0.9644004676381551,1.4466007014572326,-5.7098343007776995,-4.263233599320467,8.655501722025173
0.6400000000000005,0.960989213857433,1.4414838207861493,-5.704687060029305,-4.263203239243156,8.710761630043978
0.6450000000000005,0.9603154814116095,1.4404732221174144,-5.70361239813043,-4.2631391760130155,8.719651822003481
0.6500000000000005,0.9625834621560243,1.4438751932340366,-5.7074084556138445,-4.2635332623798075,8.67888979855925
0.6550000000000005,0.9670446413510356,1.4505669620265536,-5.714213116014286,-4.263646153987732,8.602246319746321
0.6600000000000005,0.9725431319325382,1.4588146978988072,-5.722413979179669,-4.263599281280863,8.509502563659566
0.6650000000000005,0.9781197684323436,1.4671796526485155,-5.73077955997377,-4.263599907325253,8.416194286802973
0.6700000000000005,0.9832883330487754,1.4749324995731632,-5.738645575146711,-4.2637130755735475,8.329407785897292
0.6750000000000005,0.9879735991772289,1.4819603987658434,-5.74583535038392,-4.263874951618076,8.24954653619375
0.6800000000000005,0.9922927382720753,1.488439107408113,-5.752358588224046,-4.263919480815933,8.174431816629742
0.6850000000000005,0.9963640125842758,1.4945460188764137,-5.758490292248286,-4.263944273371872,8.102278459326863
0.6900000000000005,1.0002119496316473,1.500317924447471,-5.764278111523588,-4.263960187076116,8.033051538755004
0.6950000000000005,1.0037342490733938,1.5056013736100908,-5.7695946046205355,-4.263993231010445,7.968621332689876
0.7000000000000005,1.0066963080822413,1.5100444621233622,-5.774050531481274,-4.2640060693579125,7.912842757484639
0.7050000000000005,1.008747985388322,1.5131219780824832,-5.777270088100424,-4.264148110017942,7.871313766776254
0.7100000000000005,1.0095082692095827,1.514262403814374,-5.7784653029899795,-4.264202899175605,7.850441980130326
0.7150000000000005,1.0087426970184636,1.5131140455276955,-5.777161031216809,-4.264046985689114,7.854511227754906
0.7200000000000005,1.006578090596857,1.5098671358952855,-5.773718830317956,-4.26385169442267,7.881858219539352
0.7250000000000005,1.0036099492477435,1.5054149238716152,-5.769167116242357,-4.263752192370741,7.922804317985618
0.7300000000000005,1.0007501931990899,1.5011252897986347,-5.764856653910643,-4.263731364112009,7.962204692104342
0.7350000000000005,0.998841464247832,1.4982621963717482,-5.761948188743482,-4.263685992371733,7.986278535210477
0.7400000000000005,0.998329994798179,1.4974949921972684,-5.7612991142525,-4.263804122055231,7.988357010555588
0.7450000000000006,0.999222496915775,1.4988337453736627,-5.762603221772413,-4.2637694763987515,7.96946692392935
0.7500000000000006,1.0012589817389017,1.5018884726083526,-5.765737669373487,-4.263849196765134,7.934250153057647
0.7550000000000006,1.0040797850263676,1.5061196775395516,-5.76977616648036,-4.263656488940809,7.8885301317036225
0.7600000000000006,1.0072979064700178,1.5109468597050268,-5.774639414132031,-4.2636925544270055,7.837967572201904
0.7650000000000006,1.010538158098273,1.5158072371474098,-5.779399959980861,-4.26359272283345,7.788265178360064
0.7700000000000006,1.0134718297656593,1.5202077446484892,-5.7839515596691875,-4.263743815020698,7.743916122494317
0.7750000000000006,1.0158031597967856,1.5237047396951784,-5.787549720197779,-4.263844980502601,7.709060444893718
0.7800000000000006,1.0172059566170688,1.5258089349256032,-5.789477765338117,-4.263668830412514,7.688498968391959
0.7850000000000006,1.0173111049150025,1.525966657372504,-5.789631962108242,-4.263665304735738,7.687876521912381
0.7900000000000006,1.0157993748042622,1.5236990622063933,-5.787344985903699,-4.263645923697306,7.712533787859422
0.7950000000000006,1.0125210187670486,1.5187815281505728,-5.782487325906384,-4.2637057977558115,7.764880441850639
0.8000000000000006,1.007531238211019,1.5112968573165286,-5.77488875977806,-4.26359190246153,7.843992540039251
0.8050000000000006,1.0010295845301918,1.5015443767952874,-5.7653589810984505,-4.263814604303163,7.946524287947587
0.8100000000000006,0.9932986205122212,1.4899479307683319,-5.753879939112765,-4.263932008344432,8.068616972281806
0.8150000000000006,0.9847359749724748,1.4771039624587121,-5.741024437657655,-4.263920475198944,8.20483108724371
0.8200000000000006,0.9759501213622769,1.4639251820434154,-5.727585999215441,-4.263660817172026,8.346416823202247
0.8250000000000006,0.9678101743026591,1.4517152614539888,-5.715173721974732,-4.263458460520744,8.48000247901315
0.8300000000000006,0.9613617085504514,1.4420425628256772,-5.70542929107572,-4.263386728250042,8.589118708633556
0.8350000000000006,0.9576107099710454,1.436416064956568,-5.6997792523950555,-4.263363187438487,8.657630065466646
0.8400000000000006,0.9572469355932032,1.4358704033898049,-5.699319310343022,-4.263448906953218,8.674072620033202
0.8450000000000006,0.9603826501108008,1.4405739751662012,-5.704158549287535,-4.263584574121333,8.636025238858595
0.8500000000000006,0.9663991221269058,1.4495986831903587,-5.713124452217015,-4.263525769026655,8.55287028419145
0.8550000000000006,0.9739893392043414,1.460984008806512,-5.72469203425678,-4.263708025450268,8.44498949904477
0.8600000000000007,0.981452192797522,1.472178289196283,-5.736059558745145,-4.263881269548862,8.339672008355691
0.8650000000000007,0.9871923095632402,1.4807884643448603,-5.744780322105693,-4.263991857760832,8.262696986686805
0.8700000000000007,0.9902656963281361,1.4853985444922042,-5.74942229866189,-4.264023754169686,8.229071946541701
0.8750000000000007,0.990697332616829,1.4860459989252435,-5.750066435003557,-4.264020436078313,8.237144116930928
0.8800000000000007,0.9892749869166692,1.4839124803750037,-5.747895712220417,-4.263983231845413,8.272293857730656
0.8850000000000007,0.9869458122153905,1.4804187183230857,-5.744253651298808,-4.263834932975722,8.318726458518679
