time,temperature,KE,PE,TE,P
0.0,0.8504115588725671,1.2756173383088507,-5.650998516139754,-4.375381177830903,1.2915579681928782
0.005,0.8455989537681499,1.2683984306522247,-5.643774592547864,-4.375376161895639,1.3250370855981268
0.01,0.8312704030605353,1.2469056045908031,-5.622267832122307,-4.375362227531504,1.423627743320312
0.015,0.8076789023252835,1.2115183534879252,-5.586850373571514,-4.375332020083588,1.5858139787415388
0.02,0.7753128607290338,1.1629692910935507,-5.538244203699936,-4.375274912606384,1.8085673249699157
0.025,0.7349970909801765,1.1024956364702647,-5.477673538007077,-4.375177901536813,2.086669957330018
0.030000000000000002,0.6880027320523499,1.0320040980785248,-5.407031560591732,-4.3750274625132075,2.412005136474678
0.035,0.6361568145104809,0.9542352217657214,-5.329050570325473,-4.374815348559752,2.7723650783199534
0.04,0.5819035904166155,0.8728553856249233,-5.247399607535214,-4.37454422191029,3.1510397574466897
0.045,0.5282480690157894,0.792372103523684,-5.166605411586503,-4.37423330806282,3.5270458256351804
0.049999999999999996,0.47853883313356116,0.7178082497003417,-5.091728097319205,-4.373919847618863,3.8766649908449664
0.05499999999999999,0.4360851154689151,0.6541276732033726,-5.027779850214777,-4.373652177011403,4.176171561733909
0.05999999999999999,0.40367302533878613,0.6055095380081792,-4.978987483408758,-4.373477945400579,4.405385247843633
0.06499999999999999,0.3831075740826932,0.5746613611240398,-4.9480882665827455,-4.373426905458706,4.551167185825641
0.06999999999999999,0.37492313393121623,0.5623847008968244,-4.935886665759838,-4.3735019648630145,4.609643554769588
0.075,0.3783549362661976,0.5675324043992964,-4.94121153373974,-4.373679129340444,4.586396551747618
0.08,0.3915655829381071,0.5873483744071607,-4.9612683002739715,-4.373919925866811,4.494691148215528
0.085,0.4120312718191805,0.6180469077287708,-4.992227479736545,-4.374180572007774,4.352693738823357
0.09000000000000001,0.4369721784434144,0.6554582676651216,-5.029884226297877,-4.374425958632755,4.18006001953449
0.09500000000000001,0.4637266755946949,0.6955900133920424,-5.0702208716955735,-4.374630858303531,3.995506851546444
0.10000000000000002,0.490020612226169,0.7350309183392535,-5.109812510079607,-4.374781591740353,3.8147849018205306
0.10500000000000002,0.5141252673055999,0.7711879009584,-5.146062349236652,-4.374874448278252,3.6497952490015733
0.11000000000000003,0.5349161457666743,0.8023742186500116,-5.177286055655102,-4.374911837005091,3.5081946208762065
0.11500000000000003,0.551860308745165,0.8277904631177475,-5.202690562672239,-4.374900099554492,3.3934381784747765
0.12000000000000004,0.5649463912367512,0.8474195868551266,-5.222270712347697,-4.374851125492571,3.3054615059202317
0.12500000000000003,0.574578598210806,0.8618678973162092,-5.23664527196516,-4.374777374648951,3.2412606891103017
0.13000000000000003,0.5814491979564669,0.8721737969347003,-5.246864588953382,-4.374690792018681,3.1959633305469004
0.13500000000000004,0.5864042991039862,0.8796064486559793,-5.254210596811878,-4.374604148155899,3.1637157845300927
0.14000000000000004,0.5903231314712545,0.8854846972068817,-5.260010568888904,-4.374525871682023,3.1383628855469263
0.14500000000000005,0.5940179513790491,0.8910269270685737,-5.265489530936817,-4.374462603868243,3.1144228179604645
0.15000000000000005,0.5981642956702844,0.8972464435054267,-5.271664014028061,-4.374417570522634,3.0873375080302825
0.15500000000000005,0.6032620260010184,0.9048930390015275,-5.279283424795767,-4.374390385794239,3.053774094079619
0.16000000000000006,0.609621419280014,0.914432128920021,-5.2888125648997,-4.374380435979679,3.0116622141184495
0.16500000000000006,0.6173690399131819,0.9260535598697729,-5.300440771402153,-4.37438721153238,2.96022316188998
0.17000000000000007,0.6264655454564505,0.9396983181846759,-5.314104781674846,-4.374406463490169,2.899819713886699
0.17500000000000007,0.6367318172890085,0.9550977259335127,-5.329533460483369,-4.3744357345498575,2.831733311705843
0.18000000000000008,0.6478824333610991,0.9718236500416485,-5.346295782934423,-4.374472132892773,2.757877665175512
0.18500000000000008,0.6595599239441926,0.989339885916289,-5.363851527930492,-4.374511642014203,2.680806091715934
0.19000000000000009,0.6713688932977651,1.0070533399466477,-5.381605622472372,-4.374552282525724,2.6032057785178377
0.1950000000000001,0.6829122202328944,1.0243683303493416,-5.398959210396734,-4.374590880047393,2.52777729490747
0.2000000000000001,0.6938233168366105,1.0407349752549158,-5.415358979476698,-4.374624004221784,2.4570310220541343
0.2050000000000001,0.7037951592428348,1.055692738864252,-5.430342829065215,-4.374650090200963,2.3930841905158524
0.2100000000000001,0.7126064963435089,1.0689097445152633,-5.443575762200285,-4.374666017685022,2.3374972622893835
0.2150000000000001,0.7201450537229366,1.080217580584405,-5.454889673613509,-4.374672093029103,2.291112782315759
0.2200000000000001,0.7264313837475569,1.0896470756213352,-5.4643112830301925,-4.374664207408857,2.2538407094779007
0.22500000000000012,0.7316328975855767,1.0974493463783652,-5.472091946785938,-4.374642600407573,2.224500191996921
0.23000000000000012,0.7360657495846299,1.1040986243769448,-5.4787062133257445,-4.374607588948799,2.2009021285152137
0.23500000000000013,0.7401774629975019,1.1102661944962529,-5.484829976480924,-4.374563781984672,2.1799336055438996
0.24000000000000013,0.7444899228371913,1.116734884255787,-5.491257634674925,-4.374522750419138,2.157687581179702
0.24500000000000013,0.7494924596773366,1.1242386895160048,-5.498737573758,-4.374498884241995,2.1305282554899594
0.2500000000000001,0.7554885640823944,1.1332328461235917,-5.507737963496339,-4.374505117372748,2.096196826869179
0.2550000000000001,0.7624861170640617,1.1437291755960926,-5.518268374816673,-4.374539199220581,2.054594035672134
0.2600000000000001,0.7702123052065611,1.1553184578098417,-5.5299076766464434,-4.374589218836602,2.007829788154623
0.2650000000000001,0.7782323153945157,1.1673484730917736,-5.541988082322776,-4.374639609231003,1.9592121160035685
0.27000000000000013,0.7860953457012735,1.1791430185519103,-5.553822772675741,-4.374679754123831,1.9119224817081966
0.27500000000000013,0.7934240819127081,1.1901361228690621,-5.5648490522673235,-4.374712929398262,1.8685206463886597
0.28000000000000014,0.7999188318887539,1.199878247833131,-5.574620746917969,-4.374742499084838,1.8308775840476923
0.28500000000000014,0.8053180131797546,1.2079770197696318,-5.5827516399951875,-4.374774620225556,1.8007000208670059
0.29000000000000015,0.8093792167425244,1.2140688251137868,-5.5888699004784606,-4.374801075364674,1.7796410861833898
0.29500000000000015,0.811917516248579,1.2178762743728684,-5.59269232139712,-4.374816047024252,1.7690139183783
0.30000000000000016,0.812875442607216,1.219313163910824,-5.594127376099982,-4.374814212189158,1.7692390863380985
0.30500000000000016,0.812361231207981,1.2185418468119715,-5.593338742461427,-4.374796895649455,1.7795482583340068
0.31000000000000016,0.810635383940839,1.2159530759112587,-5.590725042619023,-4.3747719667077645,1.7979262159460183
0.31500000000000017,0.8080520773119864,1.2120781159679797,-5.586823485863932,-4.374745369895953,1.8219279646308575
0.3200000000000002,0.8049979907533503,1.2074969861300255,-5.5822146434819135,-4.374717657351888,1.8488218915854886
0.3250000000000002,0.8018720503924215,1.2028080755886321,-5.577497829060027,-4.374689753471395,1.8758303760710382
0.3300000000000002,0.7990597594149573,1.198589639122436,-5.573256978713083,-4.374667339590647,1.90020945751076
0.3350000000000002,0.7968602623073481,1.1952903934610222,-5.569952886540168,-4.374662493079146,1.9197214741465825
0.3400000000000002,0.7953857641549739,1.193078646232461,-5.567760088083446,-4.374681441850986,1.9335940966142895
0.3450000000000002,0.7945343908875869,1.1918015863313804,-5.566510188636657,-4.374708602305276,1.942818590688094
0.3500000000000002,0.7941219010428626,1.191182851564294,-5.56590380947065,-4.374720957906357,1.9490458501630252
0.3550000000000002,0.7940864315084032,1.1911296472626047,-5.5658362127976275,-4.374706565535023,1.9528750179543504
0.3600000000000002,0.7945664289224414,1.191849643383662,-5.566533784359417,-4.374684140975754,1.9529477865348182
0.3650000000000002,0.7957407850318062,1.1936111775477094,-5.568296123686189,-4.37468494613848,1.947596651717526
0.3700000000000002,0.7975833715553282,1.1963750573329923,-5.5710894931671815,-4.374714435834189,1.9368808310433763
0.3750000000000002,0.7998160744800851,1.1997241117201276,-5.574470068770007,-4.374745957049879,1.9232313196082311
0.3800000000000002,0.8021210649140633,1.203181597371095,-5.577936032752674,-4.374754435381579,1.9092832485998097
0.38500000000000023,0.8043780321825931,1.2065670482738897,-5.581302520053182,-4.374735471779292,1.8960300581561542
0.39000000000000024,0.8067147130918796,1.2100720696378193,-5.584773813764433,-4.374701744126614,1.8824353079173894
0.39500000000000024,0.8093861992917224,1.2140792989375837,-5.5887546163021975,-4.374675317364614,1.8663268621910678
0.40000000000000024,0.8125853261657666,1.21887798924865,-5.593552684155618,-4.374674694906968,1.8459542707007763
0.40500000000000025,0.8162729236111455,1.2244093854167182,-5.5991156069182,-4.374706221501483,1.8214880124007278
0.41000000000000025,0.8200998821864024,1.2301498232796038,-5.604917018877436,-4.3747671955978324,1.7953653332281005
0.41500000000000026,0.8234453067251963,1.2351679600877945,-5.6100100137127855,-4.374842053624992,1.7722423316522375
0.42000000000000026,0.8255708037522472,1.2383562056283708,-5.613265308771853,-4.374909103143482,1.757616868036557
0.42500000000000027,0.8258472591213237,1.2387708886819855,-5.613714805044849,-4.374943916362864,1.7563020573704065
0.43000000000000027,0.8239829279363559,1.2359743919045338,-5.6109059235495105,-4.374931531644976,1.7706421967403008
0.4350000000000003,0.8201676852819008,1.2302515279228512,-5.605124372360889,-4.374872844438038,1.7994104683485423
0.4400000000000003,0.8150694037060621,1.222604105559093,-5.59738741613522,-4.3747833105761265,1.8377496592842908
0.4450000000000003,0.8096724645579731,1.2145086968369596,-5.589195675597632,-4.374686978760673,1.8784568572676317
0.4500000000000003,0.8050259556683701,1.2075389335025553,-5.582147442815265,-4.37460850931271,1.9138624633733021
0.4550000000000003,0.8019973354690167,1.2029960032035252,-5.577558654082862,-4.374562650879337,1.9377178223812244
0.4600000000000003,0.8011100815965342,1.2016651223948014,-5.576219348146529,-4.374554225751728,1.9463987595224903
0.4650000000000003,0.8024715522477659,1.2037073283716488,-5.578291376645775,-4.374584048274126,1.9390744518278127
0.4700000000000003,0.8057511062056604,1.2086266593084907,-5.583277215774921,-4.374650556466431,1.9181103182450483
0.4750000000000003,0.8102193389597936,1.2153290084396904,-5.590069257012135,-4.3747402485724445,1.8888702673750908
0.4800000000000003,0.8148901234153769,1.2223351851230655,-5.597168192858626,-4.37483300773556,1.8585503606444855
0.4850000000000003,0.8187402009006612,1.228110301350992,-5.603019728921119,-4.3749094275701275,1.8346059710316776
0.4900000000000003,0.820908793657271,1.2313631904859064,-5.606323686630354,-4.374960496144447,1.823084240954311
0.49500000000000033,0.8208289696794727,1.231243454519209,-5.606221307192222,-4.3749778526730125,1.8279866908287228
0.5000000000000003,0.8183084644519197,1.2274626966778797,-5.602420522263543,-4.374957825585663,1.8505898560966054
0.5050000000000003,0.8135770859107995,1.220365628866199,-5.5952650369680805,-4.374899408101881,1.8891918873469722
0.5100000000000003,0.8072766370541558,1.2109149555812337,-5.585728213705016,-4.374813258123782,1.9388560951087996
0.5150000000000003,0.8003243961338101,1.2004865942007152,-5.575215720016708,-4.374729125815992,1.9926140841295563
0.5200000000000004,0.7936230551869686,1.190434582780453,-5.565114114216863,-4.37467953143641,2.0435624784627993
0.5250000000000004,0.7877526077139297,1.1816289115708947,-5.5563029183456365,-4.374674006774741,2.087547152747446
0.5300000000000004,0.7828918958333415,1.1743378437500123,-5.549025316380616,-4.374687472630604,2.1238308197531075
0.5350000000000004,0.7790192205504544,1.1685288308256816,-5.543216866988582,-4.374688036162901,2.153194688136651
0.5400000000000004,0.7761819295463881,1.1642728943195821,-5.538937694580737,-4.374664800261154,2.175691815873879
0.5450000000000004,0.7746314748010272,1.1619472122015408,-5.536570409224526,-4.374623197022985,2.189561381427962
0.5500000000000004,0.7747684190130174,1.162152628519526,-5.53673510492876,-4.374582476409234,2.191694443640337
0.5550000000000004,0.7769642553287591,1.1654463829931387,-5.5400104252885916,-4.374564042295453,2.1791489206802437
0.5600000000000004,0.7813575360687719,1.1720363041031578,-5.5466185983988305,-4.3745822942956725,2.150638817310399
0.5650000000000004,0.7877266343285111,1.1815899514927666,-5.556224434255215,-4.374634482762448,2.1077498944967146
0.5700000000000004,0.7955136507172738,1.1932704760759107,-5.567975046984619,-4.374704570908709,2.0545458081776387
0.5750000000000004,0.8039770433053121,1.2059655649579681,-5.580737223322579,-4.374771658364611,1.9964705409865882
0.5800000000000004,0.812379464244608,1.218569196366912,-5.593393346791158,-4.374824150424246,1.9388545358144254
0.5850000000000004,0.8201140307515538,1.2301710461273305,-5.605030814938623,-4.374859768811294,1.885852461220864
0.5900000000000004,0.8267393580704281,1.240109037105642,-5.61499036652001,-4.374881329414367,1.840528500975574
0.5950000000000004,0.8319698569104549,1.2479547853656823,-5.62284899011789,-4.3748942047522075,1.8047709155281486
0.6000000000000004,0.8356471013920562,1.2534706520880843,-5.628370196545844,-4.37489954445776,1.7795656035750977
0.6050000000000004,0.8377152092711425,1.2565728139067136,-5.63147167139872,-4.374898857492006,1.7652056834744483
0.6100000000000004,0.8382067553510133,1.25731013302652,-5.6322038199659366,-4.374893686939417,1.7614821545682235
0.6150000000000004,0.8372249221690817,1.2558373832536227,-5.630720926947828,-4.374883543694206,1.7677255561968477
0.6200000000000004,0.834955274692908,1.252432912039362,-5.627292567915234,-4.374859655875872,1.7828763757664823
0.6250000000000004,0.8317150640814789,1.2475725961222184,-5.6223925951547296,-4.374819999032512,1.8048532763640894
0.6300000000000004,0.827992155563538,1.241988233345307,-5.616750238556639,-4.374762005211331,1.8302853555506542
0.6350000000000005,0.8244166759374966,1.236625013906245,-5.611325946094982,-4.374700932188738,1.8545738343417844
0.6400000000000005,0.8216303482190672,1.2324455223286008,-5.607102195022343,-4.3746566726937415,1.8729924195526708
0.6450000000000005,0.8200773813641444,1.2301160720462168,-5.604764631555531,-4.374648559509314,1.8821674067896128
0.6500000000000005,0.8198262475704102,1.2297393713556153,-5.604424542533473,-4.374685171177858,1.881547657335051
0.6550000000000005,0.8205237409118008,1.2307856113677011,-5.605539364186896,-4.3747537528191955,1.8737869293381952
0.6600000000000005,0.821509580687999,1.2322643710319985,-5.60709362737617,-4.374829256344172,1.8639128153344762
0.6650000000000005,0.822046362267983,1.2330695434019745,-5.6079578345605725,-4.374888291158598,1.857505774499036
0.6700000000000005,0.8215677276611502,1.2323515914917251,-5.607262782010825,-4.3749111905191,1.8588197765759285
0.6750000000000005,0.8198648667864763,1.2297973001797144,-5.604689953214015,-4.3748926530343,1.8694006600648099
0.6800000000000005,0.8171582074663774,1.225737311199566,-5.600574160219853,-4.374836849020287,1.8876517556390902
0.6850000000000005,0.8140210304567254,1.221031545685088,-5.595798122360805,-4.374766576675716,1.9091921051006937
0.6900000000000005,0.8111735421251363,1.2167603131877045,-5.591467846225227,-4.3747075330375225,1.9286398101046593
0.6950000000000005,0.8092144741006017,1.2138217111509024,-5.588505134848525,-4.374683423697623,1.9414506013036432
0.7000000000000005,0.8083909973253949,1.2125864959880923,-5.587288602129463,-4.3747021061413705,1.9458301679882246
0.7050000000000005,0.8085348384086316,1.2128022576129474,-5.587551152017045,-4.374748894404098,1.9433045662235762
0.7100000000000005,0.8091929328092673,1.2137893992139008,-5.58858762440196,-4.3747982251880595,1.937483944189147
0.7150000000000005,0.8098645220841358,1.2147967831262039,-5.589623778453787,-4.374826995327583,1.932265677373337
0.7200000000000005,0.8102330878627371,1.2153496317941055,-5.59017241699287,-4.374822785198765,1.9301191529289636
0.7250000000000005,0.810301181343039,1.2154517720145583,-5.590237986460796,-4.374786214446237,1.9309472668314593
0.7300000000000005,0.8103806356259088,1.2155709534388632,-5.590304174966697,-4.374733221527834,1.9322590005424785
0.7350000000000005,0.8109405719283665,1.2164108578925497,-5.591098252301361,-4.374687394408811,1.930442720230619
0.7400000000000005,0.8123804264149381,1.2185706396224072,-5.593240409439552,-4.374669769817145,1.92218374040189
0.7450000000000006,0.8148450525144533,1.22226757877168,-5.596952387918567,-4.3746848091468875,1.9064544991238952
0.7500000000000006,0.8181710449354241,1.2272565674031362,-5.601979898485529,-4.374723331082392,1.8846517884836915
0.7550000000000006,0.8219788676756012,1.2329683015134019,-5.607732056677396,-4.374763755163994,1.8596931667957262
0.7600000000000006,0.8258431992203167,1.238764798830475,-5.613557226681206,-4.374792427850731,1.8348426747949365
0.7650000000000006,0.8294442142636254,1.244166321395438,-5.618968975593161,-4.3748026541977225,1.8123443694405048
0.7700000000000006,0.8326402097963722,1.2489603146945583,-5.623755495077273,-4.374795180382715,1.7931862296700776
0.7750000000000006,0.835448286087124,1.253172429130686,-5.627953071043271,-4.374780641912585,1.777006467453434
0.7800000000000006,0.8379611874824286,1.256941781223643,-5.63171145361402,-4.374769672390378,1.7629257945953767
0.7850000000000006,0.8402444405755114,1.260366660863267,-5.63513770093958,-4.374771040076314,1.7503156821850465
0.7900000000000006,0.8422580455077059,1.2633870682615589,-5.638173170006916,-4.374786101745357,1.739382064017287
0.7950000000000006,0.8438437281112511,1.2657655921668765,-5.64057397772938,-4.3748083855625035,1.7312520598313197
0.8000000000000006,0.8447778901622002,1.2671668352433003,-5.641996992171782,-4.374830156928481,1.7275440570990244
0.8050000000000006,0.8448475220371153,1.267271283055673,-5.64211788466201,-4.374846601606338,1.729813423704606
0.8100000000000006,0.8439045991413574,1.2658568987120362,-5.640714040010492,-4.374857141298456,1.7391354793856257
0.8150000000000006,0.8418871228866872,1.2628306843300308,-5.6376919881515235,-4.3748613038214925,1.755916609742888
0.8200000000000006,0.8388202563942814,1.258230384591422,-5.633088855508672,-4.37485847091725,1.7799179929297413
0.8250000000000006,0.8348061190907625,1.2522091786361438,-5.627056886222646,-4.374847707586503,1.8104339887589478
0.8300000000000006,0.8300334309080641,1.2450501463620962,-5.619878475072256,-4.37482832871016,1.8461600925073307
0.8350000000000006,0.8247940998310438,1.2371911497465657,-5.611990305789118,-4.3747991560425525,1.885028227125307
0.8400000000000006,0.8194650999435574,1.229197649915336,-5.6039643006531215,-4.374766650737786,1.9242071771360008
0.8450000000000006,0.8144339709205792,1.2216509563808688,-5.596396181210146,-4.374745224829278,1.9607237803888513
0.8500000000000006,0.8099807876985273,1.214971181547791,-5.58971166994734,-4.374740488399548,1.9925198752762996
0.8550000000000006,0.8061968260836408,1.2092952391254612,-5.584047171624222,-4.374751932498762,2.018904815167169
0.8600000000000007,0.8030061157371579,1.2045091736057367,-5.57927854861918,-4.374769375013443,2.0405827862001695
0.8650000000000007,0.800255434366196,1.200383151549294,-5.575164811000505,-4.3747816594512114,2.058782049502054
0.8700000000000007,0.7977887617964613,1.196683142694692,-5.571476609318753,-4.3747934666240615,2.0746152477678246
0.8750000000000007,0.7954588459096084,1.1931882688644124,-5.567995279434974,-4.374807010570561,2.089170355199759
0.8800000000000007,0.7931092946157915,1.1896639419236872,-5.564482695897462,-4.374818753973775,2.103564089067503
