time,temperature,KE,PE,TE,P
0.0,0.7277146746533669,1.0915720119800503,-3.5730365394478816,-2.4814645274678315,28.06689732303546
0.005,0.7208318930635259,1.081247839595289,-3.5625806219608873,-2.481332782365598,28.151966078511773
0.01,0.6935739553682733,1.04036093305241,-3.521345236877487,-2.480984303825077,28.54636012397935
0.015,0.6496126341941906,0.9744189512912859,-3.4548547166437067,-2.4804357653524214,29.197345635591308
0.02,0.5947542539354167,0.8921313809031252,-3.371873023644237,-2.4797416427411116,30.017612159999175
0.025,0.5364494003326279,0.8046741004989418,-3.2836240014546227,-2.478949900955681,30.88806248650444
0.030000000000000002,0.48300806206694363,0.7245120931004154,-3.202696039135418,-2.4781839460350024,31.67712710012312
0.035,0.4423834618703991,0.6635751928055987,-3.1411713418517815,-2.477596149046182,32.259068498706235
0.04,0.420636801614298,0.630955202421447,-3.10826982574552,-2.477314623324073,32.535939919708284
0.045,0.42064401394490497,0.6309660209173574,-3.108361700108403,-2.4773956791910456,32.46199691266264
0.049999999999999996,0.4415995810132915,0.6623993715199373,-3.140182089262148,-2.4777827177422105,32.05247465676284
0.05499999999999999,0.4795027445005673,0.7192541167508509,-3.197602490972061,-2.47834837422121,31.371029943902116
0.05999999999999999,0.5284238712743976,0.7926358069115964,-3.2715804338394316,-2.4789446269278352,30.515970017793343
0.06499999999999999,0.582029827620813,0.8730447414312195,-3.352492183995789,-2.4794474425645694,29.58721280853584
0.06999999999999999,0.6348390738423465,0.9522586107635198,-3.4320409949181045,-2.4797823841545843,28.67183252353289
0.075,0.6829988306420403,1.0244982459630603,-3.504428520986824,-2.4799302750237637,27.829192764553135
0.08,0.7245929487909082,1.0868894231863624,-3.566798949904601,-2.479909526718239,27.08924795639199
0.085,0.7595263720185021,1.1392895580277533,-3.6190487785723815,-2.4797592205446284,26.452011399839474
0.09000000000000001,0.7891454364343077,1.1837181546514615,-3.663232072370797,-2.4795139177193355,25.895217826894935
0.09500000000000001,0.8157632686759692,1.2236449030139538,-3.7028785318993243,-2.4792336288853707,25.38411865839822
0.10000000000000002,0.8421499958178043,1.2632249937267064,-3.742185506748134,-2.478960513021428,24.8757340298968
0.10500000000000002,0.8710367188197072,1.3065550782295607,-3.7852793425694555,-2.4787242643398946,24.328705579404346
0.11000000000000003,0.9047259192451275,1.3570888788676911,-3.8356577700540133,-2.478568891186322,23.70843730869807
0.11500000000000003,0.9448399958353977,1.4172599937530965,-3.895762802646725,-2.4785028088936283,22.991526036523343
0.12000000000000004,0.9921721472983133,1.48825822094747,-3.966770771860684,-2.4785125509132144,22.165658190617375
0.12500000000000003,1.0466464224440566,1.5699696336660849,-4.048556975155582,-2.478587341489497,21.234323618522826
0.13000000000000003,1.1073653578403642,1.6610480367605462,-4.139783480532297,-2.4787354437717513,20.211922994788182
0.13500000000000004,1.1727172072567824,1.7590758108851734,-4.238011330717474,-2.4789355198323,19.124392723041247
0.14000000000000004,1.2405538278676127,1.8608307418014192,-4.339992886501506,-2.4791621447000862,18.005205337252598
0.14500000000000005,1.3084202339106472,1.9626303508659708,-4.442033448582415,-2.4794030977164443,16.893113573390828
0.15000000000000005,1.3737977125299379,2.060696568794907,-4.540323689184913,-2.479627120390006,15.82580605671826
0.15500000000000005,1.4343583082077467,2.15153746231162,-4.631358724100468,-2.479821261788848,14.840922508845374
0.16000000000000006,1.4881666382031702,2.2322499573047554,-4.712212836136581,-2.4799628788318264,13.966400188322309
0.16500000000000006,1.5337952704350624,2.3006929056525935,-4.780759913105554,-2.4800670074529596,13.224107152866273
0.17000000000000007,1.570267433387032,2.3554011500805476,-4.8355613725238005,-2.4801602224432524,12.626199911391133
0.17500000000000007,1.5968857826352896,2.3953286739529345,-4.875581658842592,-2.4802529848896575,12.183291022887609
0.18000000000000008,1.6131806325062115,2.4197709487593175,-4.900109639125877,-2.4803386903665596,11.90345574275124
0.18500000000000008,1.6191369267051166,2.428705390057675,-4.909048110110156,-2.4803427200524815,11.78887797058571
0.19000000000000009,1.6158539132207883,2.4237808698311825,-4.903937001828937,-2.480156131997754,11.825673522497137
0.1950000000000001,1.6064663915619295,2.409699587342894,-4.889397403035987,-2.4796978156930924,11.967632893396743
0.2000000000000001,1.5965301269831624,2.3947951904747438,-4.873886285374799,-2.4790910949000553,12.122100024651356
0.2050000000000001,1.5925275588625927,2.388791338293889,-4.8675147793227,-2.478723441028811,12.177144327703164
0.2100000000000001,1.5983267287261174,2.397490093089176,-4.876390917114673,-2.4789008240254966,12.063024724049336
0.2150000000000001,1.6128890513063292,2.419333576959494,-4.898750543884639,-2.479416966925146,11.80298770708528
0.2200000000000001,1.6318371250734922,2.447755687610238,-4.927629318019327,-2.479873630409089,11.476142219813651
0.22500000000000012,1.6506059853981612,2.4759089780972414,-4.9560799271791085,-2.4801709490818666,11.158173101774151
0.23000000000000012,1.6660204478983038,2.4990306718474558,-4.979398528800614,-2.480367856953158,10.897483645772056
0.23500000000000013,1.6761768793862708,2.514265319079406,-4.994753356951526,-2.4804880378721204,10.72363117337717
0.24000000000000013,1.680242000680749,2.5203630010211238,-5.000848901278272,-2.480485900257148,10.649687895064568
0.24500000000000013,1.6786890986616987,2.518033647992548,-4.998388446005793,-2.480354798013244,10.66803180158671
0.2500000000000001,1.6733061472601705,2.5099592208902557,-4.990118284027779,-2.480159063137523,10.746044072906699
0.2550000000000001,1.6662177172602592,2.499326575890389,-4.97943210030992,-2.480105524419531,10.845237436656486
0.2600000000000001,1.6583172318729487,2.487475847809423,-4.967727090056121,-2.480251242246698,10.949799858856688
0.2650000000000001,1.6488622202960281,2.4732933304440423,-4.9537243654749625,-2.4804310350309207,11.07580574544306
0.27000000000000013,1.6367764305175365,2.4551646457763048,-4.93567296336556,-2.480508317589255,11.246491751469117
0.27500000000000013,1.6219418247885864,2.4329127371828796,-4.913412129037567,-2.480499391854688,11.465857368060412
0.28000000000000014,1.6052101696523935,2.40781525447859,-4.888297235209401,-2.4804819807308114,11.71822449217211
0.28500000000000014,1.5879049762806423,2.3818574644209636,-4.862295062624192,-2.480437598203228,11.986114500328588
0.29000000000000015,1.5719039680710274,2.357855952106541,-4.838148709273645,-2.4802927571671036,12.242062974788535
0.29500000000000015,1.5600604796660937,2.3400907194991407,-4.820127279279341,-2.4800365597802005,12.43930889192707
0.30000000000000016,1.5557551923325195,2.3336327884987793,-4.8135380474142835,-2.4799052589155046,12.516441854628326
0.30500000000000016,1.560689654736537,2.3410344821048055,-4.821197160736083,-2.480162678631277,12.437124554654694
0.31000000000000016,1.5726446318312404,2.3589669477468607,-4.839687878627741,-2.4807209308808806,12.236399239590874
0.31500000000000017,1.5860686493341094,2.379102974001164,-4.860404305711746,-2.481301331710582,12.00946830526147
0.3200000000000002,1.5945401127101855,2.391810169065278,-4.8735945970617705,-2.4817844279964922,11.860184000160556
0.3250000000000002,1.592639027835418,2.388958541753127,-4.870992382929864,-2.482033841176737,11.87914893304115
0.3300000000000002,1.5775839423832358,2.3663759135748537,-4.848236409858674,-2.4818604962838204,12.113745852593254
0.3350000000000002,1.550701435282121,2.3260521529231815,-4.80736613100308,-2.4813139780798994,12.543510855565069
0.3400000000000002,1.5171270539270045,2.275690580890507,-4.756330208878137,-2.4806396279876304,13.082724705861194
0.3450000000000002,1.4835467934312336,2.2253201901468507,-4.705432464730549,-2.4801122745836985,13.621138069280342
0.3500000000000002,1.4556332246166508,2.1834498369249764,-4.663291420206427,-2.47984158328145,14.066954597224182
0.3550000000000002,1.4366501036623218,2.154975155493483,-4.634772490943205,-2.4797973354497223,14.371417461114087
0.3600000000000002,1.427821381505757,2.1417320722586357,-4.621532139379467,-2.479800067120832,14.522228074090497
0.3650000000000002,1.4295577845334206,2.144336676800131,-4.624107797904137,-2.479771121104006,14.51369839442054
0.3700000000000002,1.4418096351143275,2.162714452671491,-4.642599762445043,-2.479885309773551,14.342710448343782
0.3750000000000002,1.4631115534518437,2.1946673301777655,-4.674896994888072,-2.480229664710306,14.02614119388192
0.3800000000000002,1.4897725717507395,2.2346588576261093,-4.715362213102894,-2.4807033554767854,13.622692119666539
0.38500000000000023,1.5167931856868544,2.2751897785302817,-4.7562739341270746,-2.481084155596793,13.21564458111794
0.39000000000000024,1.5400345796162642,2.3100518694243966,-4.791261055600524,-2.481209186176127,12.870058806615436
0.39500000000000024,1.5575620003496395,2.3363430005244594,-4.817509087840472,-2.4811660873160126,12.61347274389835
0.40000000000000024,1.5689526933752715,2.3534290400629074,-4.83461027422993,-2.4811812341670225,12.445614749225175
0.40500000000000025,1.5736186177106426,2.360427926565964,-4.841723847056095,-2.48129592049013,12.372025646728124
0.41000000000000025,1.5704266699873908,2.3556400049810864,-4.836995152032203,-2.4813551470511164,12.416185695416386
0.41500000000000026,1.5589569032307993,2.338435354846199,-4.819699889928558,-2.4812645350823597,12.589294130150702
0.42000000000000026,1.5403670576869615,2.3105505865304425,-4.7916077080336175,-2.4810571215031754,12.874511144061335
0.42500000000000027,1.5171110280917488,2.275666542137623,-4.756488073616747,-2.4808215314791244,13.232253633923294
0.43000000000000027,1.492500205440409,2.2387503081606135,-4.719248462070252,-2.4804981539096382,13.614607875554615
0.4350000000000003,1.4706972333413795,2.206045850012069,-4.6861776309466885,-2.4801317809346193,13.956020848978715
0.4400000000000003,1.4562296120547245,2.184344418082087,-4.6642412833244205,-2.4798968652423334,14.180113748888958
0.4450000000000003,1.4520636727199863,2.1780955090799794,-4.658117481658093,-2.480021972578113,14.234067067955078
0.4500000000000003,1.4578934260572365,2.1868401390858545,-4.667187733024376,-2.480347593938521,14.127390615450851
0.4550000000000003,1.4714823611443089,2.207223541716463,-4.68771235728716,-2.4804888155706966,13.904256752856016
0.4600000000000003,1.4913682860111412,2.2370524290167118,-4.717527624145397,-2.480475195128685,13.582345982980828
0.4650000000000003,1.5166050110719675,2.2749075166079513,-4.755558452898027,-2.480650936290076,13.166408291708152
0.4700000000000003,1.5443613792081232,2.316542068812185,-4.797629271454288,-2.4810872026421036,12.698013825641198
0.4750000000000003,1.5695795017539926,2.354369252630989,-4.835845819882529,-2.4814765672515393,12.26729036058522
0.4800000000000003,1.587767949820419,2.3816519247306283,-4.863116183760617,-2.481464259029989,11.957070858636826
0.4850000000000003,1.598089340368297,2.3971340105524455,-4.878172354507813,-2.481038343955367,11.78345322794011
0.4900000000000003,1.603469882947186,2.405204824420779,-4.885756910782053,-2.4805520863612736,11.68993118538844
0.49500000000000033,1.6074942563011023,2.4112413844516536,-4.891640839073772,-2.4803994546221184,11.61002277203408
0.5000000000000003,1.6112435062320525,2.416865259348079,-4.897391975741621,-2.480526716393542,11.528242883801822
0.5050000000000003,1.6133441353953308,2.420016203092996,-4.900665930246156,-2.480649727153159,11.47562363507836
0.5100000000000003,1.6124539529542035,2.4186809294313054,-4.899265561722838,-2.480584632291533,11.479670794765859
0.5150000000000003,1.6088392831321185,2.413258924698178,-4.8936771030447,-2.4804181783465222,11.535326534146837
0.5200000000000004,1.6039146115876877,2.4058719173815315,-4.886142273997017,-2.480270356615485,11.615883385896415
0.5250000000000004,1.5991254720741441,2.398688208111216,-4.8788677212986915,-2.4801795131874758,11.694622640196028
0.5300000000000004,1.5953607807395058,2.3930411711092585,-4.873194915966051,-2.4801537448567923,11.757803522812022
0.5350000000000004,1.592669566849539,2.3890043502743086,-4.869251968197659,-2.4802476179233506,11.80054801617807
0.5400000000000004,1.5898597412083593,2.384789611812539,-4.86529635256566,-2.4805067407531207,11.840872834030597
0.5450000000000004,1.5844604781027591,2.3766907171541387,-4.857483211488897,-2.480792494334758,11.92064675997715
0.5500000000000004,1.573789706140215,2.360684559210323,-4.841637581976735,-2.4809530227664123,12.08645010503931
0.5550000000000004,1.556547583667141,2.3348213755007112,-4.815705297547212,-2.480883922046501,12.363716833016607
0.5600000000000004,1.5338634009587837,2.3007951014381756,-4.781343266878621,-2.480548165440445,12.739028134757321
0.5650000000000004,1.509786966983189,2.264680450474783,-4.744614295584755,-2.4799338451099717,13.149160722116614
0.5700000000000004,1.4909731991187467,2.23645979867812,-4.715714794164923,-2.4792549954868033,13.4817958430242
0.5750000000000004,1.483995106394215,2.225992659591322,-4.7050585610396,-2.479065901448277,13.615421934621413
0.5800000000000004,1.4904352888774677,2.235652933316201,-4.715311045755409,-2.479658112439208,13.516414479937055
0.5850000000000004,1.5050408060807945,2.257561209121192,-4.737974514163088,-2.4804133050418957,13.284477820515303
0.5900000000000004,1.5205756753214725,2.280863512982209,-4.761558605253651,-2.4806950922714415,13.050771097789713
0.5950000000000004,1.5334960071494574,2.300244010724186,-4.780790768203741,-2.480546757479555,12.868819530719705
0.6000000000000004,1.5439277942148035,2.3158916913222054,-4.796370120834324,-2.480478429512119,12.721879793281916
0.6050000000000004,1.5517843930871928,2.327676589630789,-4.808377485589882,-2.4807008959590937,12.602369466367213
0.6100000000000004,1.5549113332049767,2.332366999807465,-4.813306227549662,-2.480939227742197,12.551896072906022
0.6150000000000004,1.5513594700556435,2.3270392050834654,-4.80787993823628,-2.4808407331528146,12.610409903914329
0.6200000000000004,1.5421841385437531,2.3132762078156297,-4.793709411817812,-2.4804332040021824,12.76339389682309
0.6250000000000004,1.5313833943313881,2.2970750914970823,-4.777039347705328,-2.4799642562082456,12.94249652915885
0.6300000000000004,1.5235884120492502,2.2853826180738754,-4.76504640866274,-2.479663790588865,13.067637361367128
0.6350000000000005,1.521749933680726,2.282624900521089,-4.7622860931781155,-2.479661192657027,13.08997492597746
0.6400000000000005,1.5257825392038702,2.288673808805805,-4.768648837356141,-2.4799750285503355,13.013085154696673
0.6450000000000005,1.5325514763634034,2.298827214545105,-4.779227331290995,-2.48040011674589,12.890369679485579
0.6500000000000005,1.5374998115785425,2.306249717367814,-4.78701494880532,-2.480765231437506,12.801446848253464
0.6550000000000005,1.5366035035579895,2.304905255336984,-4.785915916337433,-2.4810106610004485,12.810053590942905
0.6600000000000005,1.5271721170209445,2.290758175531417,-4.771933060346031,-2.4811748848146142,12.956015053661831
0.6650000000000005,1.5079156160794285,2.2618734241191425,-4.743074955388342,-2.4812015312691993,13.261085407070619
0.6700000000000005,1.47935018973799,2.219025284606985,-4.700027566160557,-2.481002281553572,13.717270379698775
0.6750000000000005,1.4445900932167077,2.1668851398250615,-4.647429146121815,-2.4805440062967534,14.27559521770144
0.6800000000000005,1.4092957639180204,2.113943645877031,-4.593942855979741,-2.47999921010271,14.83933678887006
0.6850000000000005,1.3796398056084413,2.069459708412662,-4.549170447270034,-2.479710738857372,15.304049809870977
0.6900000000000005,1.3593836372268793,2.039075455840319,-4.518850734736052,-2.479775278895733,15.608038747805741
0.6950000000000005,1.3488078978049831,2.0232118467074747,-4.503190928448337,-2.4799790817408622,15.754253477509323
0.7000000000000005,1.346144008026477,2.0192160120397156,-4.499387251728016,-2.4801712396883,15.777044438809426
0.7050000000000005,1.3492325778536995,2.023848866780549,-4.504175920454509,-2.48032705367396,15.711226957003753
0.7100000000000005,1.3560104107215396,2.0340156160823093,-4.5144767669177375,-2.4804611508354277,15.588787984314155
0.7150000000000005,1.3646049030837775,2.046907354625666,-4.527442591653407,-2.4805352370277407,15.440112831785616
0.7200000000000005,1.3737314238840488,2.0605971358260735,-4.541118869999046,-2.480521734172973,15.285609962587541
0.7250000000000005,1.3830061654223402,2.07450924813351,-4.554937508331626,-2.480428260198116,15.130330756867712
0.7300000000000005,1.3928512517349951,2.089276877602493,-4.569554842024147,-2.480277964421654,14.967543690280868
0.7350000000000005,1.4044654539880428,2.106698180982064,-4.586750798868143,-2.480052617886079,14.776564044418233
0.7400000000000005,1.4197366294912108,2.1296049442368163,-4.609455037188199,-2.4798500929513825,14.526765306969748
0.7450000000000006,1.4402305760270944,2.160345864040641,-4.640164780092185,-2.479818916051544,14.189272677431477
0.7500000000000006,1.4660146189034013,2.1990219283551022,-4.67893171125702,-2.479909782901918,13.767225863452028
0.7550000000000006,1.495756917125507,2.2436353756882603,-4.72365645808222,-2.48002108239396,13.285827124941779
0.7600000000000006,1.527470444744354,2.2912056671165306,-4.771384571031723,-2.480178903915192,12.776939079546015
0.7650000000000006,1.5586372442697916,2.3379558664046876,-4.818372746502788,-2.480416880098101,12.27944778358918
0.7700000000000006,1.5860937663139365,2.3791406494709046,-4.859819994758293,-2.4806793452873883,11.84263229260968
0.7750000000000006,1.606609635464088,2.409914453196132,-4.890776733073332,-2.4808622798772,11.51842857426425
0.7800000000000006,1.6178719153015988,2.426807872952398,-4.907692830737857,-2.480884957785459,11.344338181476852
0.7850000000000006,1.6191825098574486,2.4287737647861727,-4.9095438670441816,-2.480770102258009,11.330989141848956
0.7900000000000006,1.611521064753326,2.417281597129989,-4.897853808507116,-2.4805722113771274,11.460744652511565
0.7950000000000006,1.596951615683747,2.3954274235256205,-4.875781008798192,-2.480353585272572,11.700895649489855
0.8000000000000006,1.5777655310021834,2.366648296503275,-4.846859587699084,-2.4802112911958094,12.013751806623839
0.8050000000000006,1.5558401434936613,2.333760215240492,-4.813891309060334,-2.4801310938198418,12.371577089541702
0.8100000000000006,1.53262049909947,2.2989307486492048,-4.778984878543058,-2.480054129893853,12.754827394800671
0.8150000000000006,1.509672026819592,2.264508040229388,-4.744430499690022,-2.4799224594606346,13.139617657937416
0.8200000000000006,1.4890541873122036,2.2335812809683055,-4.713344128853228,-2.4797628478849223,13.491404593329985
0.8250000000000006,1.4725983764066644,2.2088975646099964,-4.688714938419436,-2.4798173738094396,13.773616204448132
0.8300000000000006,1.4601033097298342,2.1901549645947513,-4.67036813001682,-2.480213165422069,13.983388520277455
0.8350000000000006,1.448455796934432,2.172683695401648,-4.653404861277195,-2.4807211658755475,14.17608203694041
0.8400000000000006,1.4337782573728668,2.1506673860593004,-4.631548612166871,-2.480881226107572,14.426102085313646
0.8450000000000006,1.4156095983563626,2.123414397534544,-4.6037947626778095,-2.4803803651432657,14.747011931378125
0.8500000000000006,1.3990958028167362,2.0986437042251045,-4.578235930821291,-2.479592226596187,15.044891735802228
0.8550000000000006,1.3913241484107175,2.0869862226160762,-4.566361067836703,-2.4793748452206272,15.184541874603978
0.8600000000000007,1.3942371971739747,2.091355795760962,-4.571298544999761,-2.4799427492387998,15.128096984221786
0.8650000000000007,1.4028518597943385,2.104277789691508,-4.584856315071279,-2.4805785253797703,14.976412996132602
0.8700000000000007,1.410919786849153,2.1163796802737296,-4.597093284131681,-2.480713603857951,14.846909843215705
0.8750000000000007,1.4161268888152212,2.1241903332228316,-4.604622435935609,-2.480432102712778,14.775442648888403
