time,temperature,KE,PE,TE,P
0.0,0.8480351153198997,1.2720526729798496,-5.117305280373618,-3.845252607393768,19.603891347784533
0.005,0.8375388870011896,1.2563083305017844,-5.1015061492952185,-3.8451978187934337,19.77212860451349
0.01,0.8063481467586268,1.20952222013794,-5.05453946805406,-3.845017247916119,20.277248828038385
0.015,0.7566158995038481,1.1349238492557723,-4.9796160550397355,-3.844692205783963,21.08616688650582
0.02,0.6921102021920662,1.0381653032880993,-4.882371926503465,-3.8442066232153658,22.13992944337213
0.025,0.6182954143789815,0.9274431215684723,-4.771009263239803,-3.8435661416713307,23.35117127314901
0.030000000000000002,0.5421699887222579,0.8132549830833868,-4.65607755834481,-3.8428225752614233,24.60556748479221
0.035,0.4716587894349245,0.7074881841523868,-4.549570852206593,-3.8420826680542066,25.771114789262143
0.04,0.41449908027960836,0.6217486204194125,-4.463238940300842,-3.8414903198814296,26.716774637265324
0.045,0.37681044224843996,0.5652156633726599,-4.406395807982889,-3.841180144610229,27.33743555509981
0.049999999999999996,0.3617810033397627,0.5426715050096441,-4.383893156983288,-3.8412216519736444,27.57825624747505
0.05499999999999999,0.3690061840193054,0.553509276028958,-4.395094024471352,-3.841584748442394,27.446102209387373
0.05999999999999999,0.39477549514476007,0.59216324271714,-4.434320406468466,-3.842157163751326,27.00536174169009
0.06499999999999999,0.4331664311026673,0.6497496466540009,-4.492542778395806,-3.8427931317418045,26.357409586235573
0.06999999999999999,0.47749891072762757,0.7162483660914413,-4.559610376626102,-3.8433620105346606,25.61560578487388
0.075,0.5216645810154449,0.7824968715231674,-4.62627618072824,-3.843779309205073,24.882049645018867
0.08,0.5610279755186046,0.8415419632779069,-4.685554960418978,-3.8440129971410717,24.23279622301548
0.085,0.5928297354362309,0.8892446031543463,-4.733315067766749,-3.8440704646124026,23.71213436800133
0.09000000000000001,0.616183434328837,0.9242751514932556,-4.768256176491728,-3.8439810249984725,23.333022518422943
0.09500000000000001,0.6318011403779937,0.9477017105669906,-4.791489191471592,-3.8437874809046013,23.082419960195597
0.10000000000000002,0.6415644008550117,0.9623466012825175,-4.805881476396816,-3.8435348751142984,22.928398505693394
0.10500000000000002,0.6480455696010277,0.9720683544015415,-4.815333676963974,-3.843265322562432,22.827997144122165
0.11000000000000003,0.6540310416713693,0.981046562507054,-4.824066576972772,-3.8430200144657185,22.7351247045215
0.11500000000000003,0.6620814062175429,0.9931221093263142,-4.835955333478453,-3.842833224152139,22.607755782153532
0.12000000000000004,0.6741769636841402,1.0112654455262102,-4.853991224922734,-3.8427257793965244,22.413401785881263
0.12500000000000003,0.6914695503104925,1.0372043254657388,-4.879912575515339,-3.8427082500496,22.133369186944385
0.13000000000000003,0.7141590522774431,1.0712385784161647,-4.914017701534679,-3.842779123118514,21.76510522764088
0.13500000000000004,0.7415277943279067,1.1122916914918601,-4.955208912094085,-3.8429172206022253,21.321333177162444
0.14000000000000004,0.7721493518130785,1.1582240277196179,-5.001313454623807,-3.8430894269041893,20.826541745409784
0.14500000000000005,0.8042347786390063,1.2063521679585094,-5.049608707912177,-3.843256539953668,20.311396638375175
0.15000000000000005,0.8360388511404969,1.2540582767107453,-5.097443224345136,-3.8433849476343913,19.805361018772587
0.15500000000000005,0.8662034472174679,1.299305170826202,-5.142762239617605,-3.8434570687914027,19.33090541424057
0.16000000000000006,0.8939493123515128,1.3409239685272691,-5.184398182801273,-3.843474214274004,18.900326437584113
0.16500000000000006,0.9191001853164472,1.3786502779746708,-5.222099109153626,-3.8434488311789554,18.515884759901624
0.17000000000000007,0.9419671777680308,1.4129507666520462,-5.256349096947713,-3.8433983302956674,18.171303995297347
0.17500000000000007,0.9631719888005722,1.4447579832008581,-5.288100377604823,-3.8433423944039644,17.85572421634503
0.18000000000000008,0.9834692502149902,1.4752038753224854,-5.318493032809736,-3.843289157487251,17.556134868901314
0.18500000000000008,1.003610877125818,1.505416315688727,-5.348664988177097,-3.8432486724883703,17.259967131296122
0.19000000000000009,1.0242560359647759,1.5363840539471638,-5.379609400232515,-3.8432253462853514,16.956112796876326
0.1950000000000001,1.0458871204132658,1.5688306806198988,-5.412060082836454,-3.8432294022165543,16.63629697153067
0.2000000000000001,1.068692416707939,1.6030386250619086,-5.446317115415131,-3.8432784903532227,16.296860347877114
0.2050000000000001,1.0924096953495042,1.6386145430242562,-5.481999583034332,-3.843385040010076,15.94149158175243
0.2100000000000001,1.1162168417219887,1.674325262582983,-5.517868384724533,-3.84354312214155,15.583824003804047
0.2150000000000001,1.1388330767608503,1.7082496151412754,-5.551961109092511,-3.8437114939512367,15.245890327932564
0.2200000000000001,1.1589127922509432,1.7383691883764147,-5.5822071922961625,-3.843838003919747,14.950733145278171
0.22500000000000012,1.1755345481500399,1.7633018222250598,-5.607195163881487,-3.843893341656427,14.713981546478953
0.23000000000000012,1.1885114636313518,1.7827671954470279,-5.626642374237793,-3.843875178790765,14.538252467998845
0.23500000000000013,1.1984310863642704,1.7976466295464055,-5.64144767786649,-3.843801048320085,14.412817339777217
0.24000000000000013,1.2064506246354336,1.8096759369531505,-5.653381836150722,-3.8437058991975723,14.317196148845412
0.24500000000000013,1.2138989484012226,1.820848422601834,-5.6644846782323865,-3.843636255630553,14.227997664523105
0.2500000000000001,1.221817763996457,1.8327266459946852,-5.676344633989846,-3.8436179879951604,14.127114297140837
0.2550000000000001,1.2306972592640568,1.8460458888960851,-5.689694505486104,-3.843648616590018,14.006342038150803
0.2600000000000001,1.240424431386803,1.8606366470802045,-5.704372768407826,-3.843736121327621,13.867525053690885
0.2650000000000001,1.2502628203327186,1.8753942304990778,-5.719272453151678,-3.8438782226526,13.72300505319387
0.27000000000000013,1.2589739209273376,1.8884608813910064,-5.732489625958647,-3.84402874456764,13.595010998370427
0.27500000000000013,1.2652775571559154,1.897916335733873,-5.742038841398535,-3.8441225056646617,13.506829600123302
0.28000000000000014,1.2684684669122535,1.9027027003683803,-5.7468187624079015,-3.8441160620395216,13.471790235539842
0.28500000000000014,1.2687853093293757,1.9031779639940636,-5.74720569557866,-3.844027731584596,13.485026612423145
0.29000000000000015,1.2672296914890144,1.9008445372335219,-5.744775784261894,-3.843931247028372,13.52757338809685
0.29500000000000015,1.26491341528589,1.8973701229288351,-5.7412575566278115,-3.8438874336989755,13.579388446542373
0.30000000000000016,1.262470571720598,1.893705857580897,-5.7376108389820075,-3.8439049814011104,13.629510049373105
0.30500000000000016,1.2599544934313116,1.8899317401469673,-5.733876182839858,-3.8439444426928913,13.67900638309938
0.31000000000000016,1.2571643868124767,1.885746580218715,-5.729712977105206,-3.8439663968864908,13.732821900776555
0.31500000000000017,1.2539951568182783,1.8809927352274176,-5.724958079600455,-3.843965344373037,13.793620002507321
0.3200000000000002,1.2505250211136327,1.8757875316704489,-5.719747549109545,-3.8439600174390964,13.85976255492136
0.3250000000000002,1.246891772558295,1.8703376588374427,-5.7142997145737935,-3.843962055736351,13.929176914260633
0.3300000000000002,1.2432115449056207,1.864817317358431,-5.708768482161671,-3.8439511648032396,14.001211913978878
0.3350000000000002,1.2397736249927127,1.8596604374890693,-5.703552001975783,-3.843891564486714,14.072917076590814
0.3400000000000002,1.2373250333936545,1.8559875500904819,-5.699769078215069,-3.8437815281245875,14.13233625644656
0.3450000000000002,1.2370163107984908,1.8555244661977364,-5.699206729713569,-3.843682263515833,14.158309662008117
0.3500000000000002,1.2398348693012273,1.8597523039518409,-5.703432534688422,-3.8436802307365805,14.130989909497695
0.3550000000000002,1.2458145392360038,1.8687218088540059,-5.712548940429559,-3.8438271315755537,14.047598660896092
0.3600000000000002,1.2536104389177685,1.8804156583766525,-5.72449616659337,-3.844080508216717,13.93114581904524
0.3650000000000002,1.2608902296256361,1.8913353444384542,-5.735668117168804,-3.84433277273035,13.823199781887677
0.3700000000000002,1.2653306774938922,1.8979960162408382,-5.742485196933934,-3.844489180693096,13.764789772609767
0.3750000000000002,1.2655112734735388,1.8982669102103082,-5.742784295841905,-3.844517385631597,13.780333975995575
0.3800000000000002,1.2613233177290402,1.8919849765935604,-5.736398204915152,-3.8444132283215913,13.871536918942894
0.38500000000000023,1.25398834370944,1.88098251556416,-5.725185695264236,-3.8442031797000764,14.017435188057146
0.39000000000000024,1.245749288078074,1.868623932117111,-5.712584537324501,-3.84396060520739,14.178622973471276
0.39500000000000024,1.2390953693737017,1.8586430540605527,-5.702441962105791,-3.843798908045238,14.310586476754576
0.40000000000000024,1.2357176180242455,1.8535764270363682,-5.697357275077972,-3.8437808480416042,14.383458834100294
0.40500000000000025,1.2359214429660288,1.853882164449043,-5.697758558801637,-3.843876394352594,14.393149485662002
0.41000000000000025,1.2388327937794081,1.858249190669112,-5.702273062260551,-3.8440238715914394,14.356278693248859
0.41500000000000026,1.2429488616188828,1.8644232924283242,-5.708605781733659,-3.8441824893053345,14.299600409386679
0.42000000000000026,1.2466979952685526,1.8700469929028292,-5.714337935047269,-3.8442909421444407,14.25102510208698
0.42500000000000027,1.2490428684081838,1.8735643026122757,-5.71785807259345,-3.8442937699811743,14.229248753515492
0.43000000000000027,1.2499376554072992,1.8749064831109488,-5.719116577012198,-3.844210093901249,14.23359058591061
0.4350000000000003,1.250118607231108,1.8751779108466617,-5.71932483025632,-3.844146919409658,14.24734085915339
0.4400000000000003,1.2501667398183625,1.8752501097275436,-5.719439190190565,-3.844189080463021,14.257918241022455
0.4450000000000003,1.2498382761869562,1.8747574142804342,-5.719034400552867,-3.8442769862724324,14.27082002281685
0.4500000000000003,1.248505139500468,1.872757709250702,-5.717065422049364,-3.8443077127986625,14.300091872930194
0.4550000000000003,1.2459879406420489,1.8689819109630734,-5.713250801928742,-3.844268890965668,14.349301169657478
0.4600000000000003,1.2426843626973627,1.864026544046044,-5.708249578073805,-3.8442230340277614,14.410198986564104
0.4650000000000003,1.2390943974132105,1.858641596119816,-5.702850368541695,-3.8442087724218785,14.473444442315293
0.4700000000000003,1.2354731109866608,1.853209666479991,-5.697420212862727,-3.844210546382736,14.5354262191326
0.4750000000000003,1.2319168696086562,1.8478753044129843,-5.692070137295814,-3.8441948328828293,14.595738089610975
0.4800000000000003,1.2286101711198356,1.8429152566797533,-5.687073985599345,-3.844158728919592,14.65180499811469
0.4850000000000003,1.2258939725425846,1.8388409588138768,-5.682960091017242,-3.8441191322033657,14.697117877238426
0.4900000000000003,1.2241187175552208,1.836178076332831,-5.680276849975301,-3.84409877364247,14.725292597690805
0.49500000000000033,1.223451463782344,1.8351771956735161,-5.679283785855991,-3.8441065901824745,14.732572877934894
0.5000000000000003,1.2237726448219988,1.8356589672329982,-5.679793795087241,-3.844134827854242,14.721575268499082
0.5050000000000003,1.2247464339231091,1.8371196508846637,-5.681278684770829,-3.8441590338861658,14.698777517799387
0.5100000000000003,1.226038672276832,1.839058008415248,-5.683219425217603,-3.844161416802354,14.670373920244854
0.5150000000000003,1.2274671609305103,1.8412007413957656,-5.6853483110003,-3.8441475696045346,14.63973374018264
0.5200000000000004,1.228980478679448,1.843470718019172,-5.687602694685894,-3.844131976666722,14.60730413904208
0.5250000000000004,1.2305491555738988,1.845823733360848,-5.689954304837524,-3.8441305714766765,14.573327864288695
0.5300000000000004,1.232049351360945,1.8480740270414175,-5.692224693772171,-3.8441506667307537,14.539695328659537
0.5350000000000004,1.2331711559389438,1.8497567339084158,-5.693954372995385,-3.84419763908697,14.511407107826082
0.5400000000000004,1.23342564381482,1.8501384657222297,-5.694390746251903,-3.844252280529673,14.497084083493226
0.5450000000000004,1.2323223562923638,1.8484835344385455,-5.692767237310995,-3.844283702872449,14.505893387053197
0.5500000000000004,1.229636641692997,1.8444549625394953,-5.688718621743078,-3.844263659203583,14.542682291512739
0.5550000000000004,1.2256389824535772,1.8384584736803655,-5.682646862550997,-3.8441883888706316,14.602671113673047
0.5600000000000004,1.221064112607799,1.8315961689116984,-5.6757031531171656,-3.8441069842054665,14.672547584114785
0.5650000000000004,1.2166416805971576,1.8249625208957363,-5.66904489598952,-3.844082375093784,14.738492394502206
0.5700000000000004,1.2125893013576825,1.8188839520365236,-5.66298627579752,-3.844102323760996,14.797721258414725
0.5750000000000004,1.2086965025809169,1.8130447538713754,-5.657154583813158,-3.844109829941783,14.856555354192304
0.5800000000000004,1.2048686464064158,1.8073029696096237,-5.651363480603416,-3.8440605109937924,14.91820882576014
0.5850000000000004,1.2015638590297695,1.802345788544654,-5.64629680256093,-3.843951014016276,14.975098282411595
0.5900000000000004,1.1997474040452862,1.7996211060679292,-5.643480057641362,-3.8438589515734325,15.00774540186298
0.5950000000000004,1.2001050838997027,1.800157625849554,-5.644064992390479,-3.843907366540925,15.000687879434826
0.6000000000000004,1.2020950091688147,1.8031425137532222,-5.647207969096529,-3.8440654553433067,14.964034612686069
0.6050000000000004,1.204241682520444,1.806362523780666,-5.650522030240307,-3.8441595064596408,14.92808925200946
0.6100000000000004,1.2055478003117501,1.808321700467625,-5.652429126515661,-3.8441074260480352,14.912747514090608
0.6150000000000004,1.2062979031322116,1.8094468546983176,-5.653419642668872,-3.8439727879705545,14.911452711636677
0.6200000000000004,1.2075806999207201,1.8113710498810804,-5.655244149364093,-3.843873099483013,14.902278138039119
0.6250000000000004,1.2102445509182302,1.8153668263773455,-5.659253768037753,-3.8438869416604073,14.8681855251238
0.6300000000000004,1.2141324110549478,1.8211986165824217,-5.6652184347404795,-3.844019818158057,14.811220728707262
0.6350000000000005,1.2180072203947945,1.8270108305921917,-5.671213700035969,-3.844202869443777,14.753902294387942
0.6400000000000005,1.220150102044273,1.8302251530664098,-5.6745692118658795,-3.84434405879947,14.727518488619824
0.6450000000000005,1.2192307819992039,1.828846172998806,-5.6732289720585225,-3.8443827990597166,14.755699684872598
0.6500000000000005,1.2148910130093684,1.8223365195140524,-5.666663390245958,-3.844326870731906,14.843572112448255
0.6550000000000005,1.2077248029334626,1.811587204400194,-5.655812707071658,-3.8442255026714642,14.979566118735137
0.6600000000000005,1.1988332291036905,1.7982498436555359,-5.642380681160319,-3.8441308375047827,15.143180517138388
0.6650000000000005,1.1893910301196389,1.7840865451794585,-5.628138384256116,-3.844051839076657,15.314619677462014
0.6700000000000005,1.1804636699132691,1.7706955048699036,-5.614676748773166,-3.8439812439032632,15.476606751646928
0.6750000000000005,1.1730282521864661,1.759542378279699,-5.603451728182138,-3.8439093499024395,15.613516882887865
0.6800000000000005,1.1680239256744722,1.7520358885117084,-5.595873160322515,-3.8438372718108065,15.709982197715913
0.6850000000000005,1.1662959877737913,1.7494439816606868,-5.593233039537708,-3.8437890578770206,15.751264602304493
0.6900000000000005,1.1683701501659474,1.752555225248921,-5.596351602228513,-3.8437963769795918,15.72776625265984
0.6950000000000005,1.1741541883409237,1.7612312825113854,-5.6051070331715165,-3.843875750660131,15.640435377788098
0.7000000000000005,1.182824867151918,1.774237300727877,-5.618237316582342,-3.8440000158544647,15.50357491292516
0.7050000000000005,1.1930844021612383,1.7896266032418575,-5.633744549969719,-3.8441179467278612,15.340080467944532
0.7100000000000005,1.2036320774969296,1.8054481162453944,-5.649641472874662,-3.8441933566292676,15.172040260344996
0.7150000000000005,1.2135315953270365,1.8202973929905548,-5.66451503943901,-3.8442176464484556,15.01534345361806
0.7200000000000005,1.2223587098333168,1.8335380647499753,-5.677729318016528,-3.844191253266553,14.876622583231955
0.7250000000000005,1.2302111837348708,1.8453167756023063,-5.689438710625784,-3.844121935023477,14.75397459612415
0.7300000000000005,1.237566784867673,1.8563501773015096,-5.700407486704693,-3.8440573094031834,14.637782396234416
0.7350000000000005,1.2448648718834696,1.8672973078252044,-5.711356819642591,-3.844059511817386,14.51845631477109
0.7400000000000005,1.2519589724202898,1.8779384586304348,-5.722100318374291,-3.8441618597438554,14.397215489089142
0.7450000000000006,1.2578679702682372,1.8868019554023558,-5.731128147053679,-3.844326191651323,14.291182103005257
0.7500000000000006,1.2611030196977366,1.891654529546605,-5.736132293098448,-3.844477763551843,14.227382842292338
0.7550000000000006,1.2603853802643998,1.8905780703965998,-5.735126632749478,-3.844548562352878,14.229089866923829
0.7600000000000006,1.255251282574903,1.8828769238623544,-5.727402912228422,-3.844525988366067,14.304697917697
0.7650000000000006,1.2462277435973856,1.8693416153960787,-5.713766510665715,-3.8444248952696363,14.445224550048714
0.7700000000000006,1.23468854831829,1.8520328224774347,-5.696295721895993,-3.844262899418558,14.628085847309055
0.7750000000000006,1.2226600641737952,1.8339900962606928,-5.678041529374833,-3.8440514331141404,14.81982109982323
0.7800000000000006,1.2125269883949448,1.818790482592417,-5.662653893706797,-3.84386341111438,14.979552734886957
0.7850000000000006,1.2062988202530327,1.809448230379549,-5.653236410962585,-3.843788180583035,15.072126024383008
0.7900000000000006,1.2048399777162813,1.807259966574422,-5.651072731460575,-3.843812764886153,15.08498875914497
0.7950000000000006,1.2079555011537628,1.8119332517306443,-5.655799333334609,-3.8438660816039643,15.024184586726575
0.8000000000000006,1.2148972053919238,1.8223458080878858,-5.666307643966987,-3.843961835879101,14.90200430264386
0.8050000000000006,1.224402680458967,1.8366040206884504,-5.680719641047232,-3.844115620358782,14.738666461349862
0.8100000000000006,1.2346619820653755,1.851992973098063,-5.696285580873619,-3.8442926077755564,14.564574613137733
0.8150000000000006,1.243660933848033,1.8654914007720496,-5.709941696911656,-3.8444502961396068,14.413880748038235
0.8200000000000006,1.2496295923244212,1.8744443884866318,-5.719000839306171,-3.844556450819539,14.316251183855801
0.8250000000000006,1.2514044187805882,1.8771066281708821,-5.721691647432841,-3.8445850192619595,14.291123540343676
0.8300000000000006,1.2486985557853219,1.873047833677983,-5.717577009493707,-3.8445291758157243,14.342595807531092
0.8350000000000006,1.242126706130588,1.8631900591958819,-5.707607797279211,-3.844417738083329,14.459019421254174
0.8400000000000006,1.232949908900329,1.8494248633504935,-5.693704898983747,-3.844280035633254,14.618204882505914
0.8450000000000006,1.2227593669709589,1.8341390504564383,-5.678276240953326,-3.844137190496888,14.793263152013832
0.8500000000000006,1.2132042591530634,1.819806388729595,-5.663815238881504,-3.8440088501519094,14.956379805157887
0.8550000000000006,1.2057200844758167,1.8085801267137251,-5.652501517861225,-3.8439213911475,15.08288038817647
0.8600000000000007,1.2012071327264409,1.8018106990896612,-5.645725725349821,-3.84391502626016,15.156419709141979
0.8650000000000007,1.1996428902249079,1.799464335337362,-5.643487688170923,-3.844023352833561,15.17625387692256
0.8700000000000007,1.1998986113682555,1.7998479170523833,-5.644044957352435,-3.8441970403000516,15.162780601819659
0.8750000000000007,1.2002292723974555,1.8003439085961832,-5.644674870870533,-3.8443309622743502,15.14857522320893
