time,temperature,KE,PE,TE,P
0.0,0.8504115588725671,1.2756173383088507,-5.3805637711820475,-4.104946432873197,2.5817960976461407
0.005,0.8455989537681499,1.2683984306522247,-5.373339847591112,-4.104941416938887,2.648761801620027
0.01,0.8312704030605353,1.2469056045908031,-5.351833087165536,-4.104927482574733,2.8459653549750747
0.015,0.8076789023252835,1.2115183534879252,-5.316415628614733,-4.104897275126808,3.170374439826673
0.02,0.7753128607290338,1.1629692910935507,-5.267809458743172,-4.104840167649622,3.6159313643799598
0.025,0.7349970909801765,1.1024956364702647,-5.207238793050337,-4.104743156580072,4.172199199174826
0.030000000000000002,0.6880027320523496,1.0320040980785246,-5.136596815634976,-4.104592717556452,4.822942492709208
0.035,0.6361568145104809,0.9542352217657214,-5.0586158253687055,-4.1043806036029835,5.54374284126377
0.04,0.5819035904166154,0.8728553856249232,-4.976964862578438,-4.104109476953514,6.301176400521053
0.045,0.5282480690157892,0.7923721035236839,-4.896170666629746,-4.103798563106062,7.053271810267226
0.049999999999999996,0.4785388331335611,0.7178082497003416,-4.821293352362436,-4.103485102662095,7.752587289420953
0.05499999999999999,0.43608511546891504,0.6541276732033725,-4.757345105258039,-4.103217432054666,8.351666319368581
0.05999999999999999,0.4036730253387861,0.6055095380081791,-4.708552738452019,-4.103043200443839,8.810143995151885
0.06499999999999999,0.3831075740826932,0.5746613611240398,-4.677653521625973,-4.102992160501933,9.101739788696293
0.06999999999999999,0.37492313393121623,0.5623847008968244,-4.665451920803062,-4.103067219906238,9.218705228835296
0.075,0.3783549362661976,0.5675324043992964,-4.670776788782991,-4.103244384383696,9.172205896634143
0.08,0.39156558293810706,0.5873483744071606,-4.690833555317218,-4.103485180910057,8.988774586646324
0.085,0.4120312718191804,0.6180469077287707,-4.72179273477979,-4.103745827051019,8.704748005112878
0.09000000000000001,0.4369721784434144,0.6554582676651216,-4.759449481341106,-4.103991213675984,8.35944185824804
0.09500000000000001,0.4637266755946948,0.6955900133920422,-4.799786126738792,-4.10419611334675,7.990293999292336
0.10000000000000002,0.49002061222616883,0.7350309183392533,-4.83937776512288,-4.104346846783627,7.628809291650901
0.10500000000000002,0.5141252673055998,0.7711879009583997,-4.875627604279914,-4.104439703321514,7.298792575588274
0.11000000000000003,0.5349161457666741,0.8023742186500112,-4.906851310698367,-4.104477092048356,7.015559051894187
0.11500000000000003,0.5518603087451649,0.8277904631177473,-4.9322558177154825,-4.104465354597735,6.7860198697504
0.12000000000000004,0.5649463912367509,0.8474195868551264,-4.95183596739094,-4.104416380535813,6.610046215041278
0.12500000000000003,0.5745785982108059,0.8618678973162088,-4.96621052700841,-4.1043426296922005,6.481629632236209
0.13000000000000003,0.5814491979564667,0.8721737969347,-4.976429843996561,-4.1042560470618605,6.391024251938576
0.13500000000000004,0.586404299103986,0.8796064486559789,-4.983775851855126,-4.104169403199147,6.32652146958797
0.14000000000000004,0.5903231314712544,0.8854846972068815,-4.989575823932149,-4.104091126725267,6.275809589593832
0.14500000000000005,0.594017951379049,0.8910269270685736,-4.995054785980076,-4.104027858911502,6.227923720060411
0.15000000000000005,0.5981642956702845,0.8972464435054268,-5.001229269071305,-4.103982825565877,6.1737466650736925
0.15500000000000005,0.6032620260010184,0.9048930390015276,-5.00884867983899,-4.103955640837463,6.106611925494881
0.16000000000000006,0.6096214192800141,0.9144321289200212,-5.018377819942955,-4.1039456910229335,6.022378295794145
0.16500000000000006,0.6173690399131821,0.9260535598697731,-5.0300060264454,-4.103952466575627,5.919488167029998
0.17000000000000007,0.6264655454564508,0.9396983181846762,-5.043670036718062,-4.103971718533385,5.798667153246823
0.17500000000000007,0.6367318172890086,0.9550977259335129,-5.059098715526614,-4.104000989593101,5.662478415631232
0.18000000000000008,0.6478824333610993,0.971823650041649,-5.075861037977677,-4.104037387936028,5.514749816814449
0.18500000000000008,0.6595599239441933,0.98933988591629,-5.0934167829737556,-4.104076897057466,5.360588546429911
0.19000000000000009,0.6713688932977656,1.0070533399466484,-5.111170877515628,-4.104117537568979,5.205369592513261
0.1950000000000001,0.6829122202328951,1.0243683303493427,-5.1285244654399795,-4.104156135090637,5.054494710049147
0.2000000000000001,0.6938233168366111,1.0407349752549166,-5.144924234519918,-4.104189259265002,4.91298523032054
0.2050000000000001,0.703795159242835,1.0556927388642525,-5.159908084108479,-4.104215345244226,4.785076090944548
0.2100000000000001,0.7126064963435087,1.068909744515263,-5.173141017243528,-4.104231272728265,4.6738885592964206
0.2150000000000001,0.7201450537229364,1.0802175805844045,-5.1844549286567805,-4.104237348072377,4.581107899508154
0.2200000000000001,0.7264313837475566,1.0896470756213348,-5.193876538073461,-4.1042294624521265,4.506553997448229
0.22500000000000012,0.7316328975855761,1.0974493463783643,-5.201657201829193,-4.10420785545083,4.447864889736784
0.23000000000000012,0.7360657495846292,1.104098624376944,-5.208271468369012,-4.104172843992068,4.4006618829870785
0.23500000000000013,0.7401774629975012,1.1102661944962517,-5.214395231524168,-4.104129037027916,4.358718455665206
0.24000000000000013,0.7444899228371908,1.1167348842557863,-5.220822889718158,-4.104088005462372,4.314219713999131
0.24500000000000013,0.7494924596773361,1.1242386895160041,-5.228302828801256,-4.104064139285252,4.259893298682499
0.2500000000000001,0.7554885640823941,1.1332328461235912,-5.23730321853959,-4.104070372415999,4.191221135486898
0.2550000000000001,0.7624861170640611,1.1437291755960917,-5.2478336298599215,-4.1041044542638305,4.108004692890578
0.2600000000000001,0.7702123052065605,1.1553184578098408,-5.259472931689677,-4.104154473879837,4.014464206811582
0.2650000000000001,0.7782323153945151,1.1673484730917725,-5.271553337366002,-4.104204864274229,3.917216415453647
0.27000000000000013,0.7860953457012727,1.1791430185519092,-5.283388027718991,-4.104245009167082,3.82262494343987
0.27500000000000013,0.7934240819127077,1.1901361228690617,-5.294414307310576,-4.104278184441515,3.7358098986022292
0.28000000000000014,0.7999188318887537,1.1998782478331305,-5.304186001961223,-4.104307754128093,3.6605136940683
0.28500000000000014,0.8053180131797546,1.2079770197696318,-5.312316895038404,-4.1043398752687725,3.6001501881775693
0.29000000000000015,0.8093792167425244,1.2140688251137868,-5.318435155521696,-4.104366330407909,3.5580260158224037
0.29500000000000015,0.811917516248579,1.2178762743728684,-5.322257576440372,-4.104381302067504,3.5367677407714044
0.30000000000000016,0.8128754426072168,1.219313163910825,-5.3236926311432695,-4.1043794672324445,3.5372165899892676
0.30500000000000016,0.8123612312079819,1.2185418468119729,-5.322903997504657,-4.104362150692685,3.557835732037161
0.31000000000000016,0.8106353839408398,1.2159530759112598,-5.320290297662241,-4.104337221750981,3.5945943257762054
0.31500000000000017,0.8080520773119876,1.2120781159679814,-5.316388740907202,-4.10431062493922,3.6426018324377374
0.3200000000000002,0.8049979907533514,1.207496986130027,-5.311779898525181,-4.1042829123951545,3.696394426289341
0.3250000000000002,0.8018720503924224,1.2028080755886335,-5.307063084103269,-4.104255008514635,3.7504162467198774
0.3300000000000002,0.7990597594149582,1.1985896391224373,-5.30282223375637,-4.104232594633931,3.7991787742749006
0.3350000000000002,0.7968602623073479,1.1952903934610217,-5.299518141583433,-4.104227748122412,3.8382062211660553
0.3400000000000002,0.7953857641549721,1.193078646232458,-5.297325343126683,-4.104246696894225,3.8659537545226246
0.3450000000000002,0.7945343908875838,1.1918015863313758,-5.296075443679913,-4.104273857348538,3.884404064001577
0.3500000000000002,0.7941219010428592,1.1911828515642888,-5.295469064513905,-4.104286212949617,3.896859223135677
0.3550000000000002,0.7940864315083992,1.1911296472625987,-5.295401467840874,-4.104271820578274,3.904517613767026
0.3600000000000002,0.7945664289224378,1.1918496433836567,-5.29609903940267,-4.104249396019013,3.9046624059719908
0.3650000000000002,0.7957407850318031,1.1936111775477047,-5.297861378729407,-4.104250201181702,3.8939583137367175
0.3700000000000002,0.797583371555326,1.196375057332989,-5.30065474821041,-4.104279690877421,3.8725238126941353
0.3750000000000002,0.7998160744800841,1.199724111720126,-5.304035323813245,-4.10431121209312,3.845221324668894
0.3800000000000002,0.802121064914063,1.2031815973710946,-5.307501287795916,-4.104319690424822,3.8173216053068777
0.38500000000000023,0.8043780321825938,1.2065670482738908,-5.3108677750964155,-4.104300726822524,3.7908117216063575
0.39000000000000024,0.8067147130918804,1.2100720696378204,-5.3143390688076595,-4.104266999169839,3.7636185946000333
0.39500000000000024,0.8093861992917231,1.2140792989375846,-5.318319871345417,-4.104240572407833,3.7313975570008293
0.40000000000000024,0.8125853261657677,1.2188779892486516,-5.323117939198862,-4.10423994995021,3.6906474089753267
0.40500000000000025,0.8162729236111463,1.2244093854167195,-5.328680861961473,-4.104271476544754,3.6417091692240025
0.41000000000000025,0.820099882186402,1.2301498232796029,-5.334482273920693,-4.10433245064109,3.589457871439029
0.41500000000000026,0.8234453067251944,1.2351679600877916,-5.339575268756019,-4.104407308668227,3.543206676188411
0.42000000000000026,0.825570803752244,1.2383562056283661,-5.3428305638151485,-4.104474358186782,3.5139524501856667
0.42500000000000027,0.8258472591213194,1.2387708886819793,-5.3432800600880945,-4.104509171406115,3.5113223997946545
0.43000000000000027,0.8239829279363518,1.2359743919045276,-5.3404711785927566,-4.1044967866882285,3.5400055719764825
0.4350000000000003,0.8201676852818961,1.230251527922844,-5.334689627404105,-4.10443809948126,3.597548036449551
0.4400000000000003,0.8150694037060563,1.2226041055590844,-5.326952671178418,-4.1043485656193335,3.6742343308540755
0.4450000000000003,0.809672464557968,1.214508696836952,-5.318760930640877,-4.104252233803925,3.75565710287033
0.4500000000000003,0.8050259556683661,1.207538933502549,-5.311712697858494,-4.104173764355944,3.826475526463471
0.4550000000000003,0.8019973354690118,1.2029960032035176,-5.307123909126136,-4.104127905922618,3.8741909448978515
0.4600000000000003,0.8011100815965283,1.2016651223947925,-5.305784603189765,-4.104119480794973,3.8915541961983746
0.4650000000000003,0.8024715522477593,1.203707328371639,-5.307856631689014,-4.104149303317374,3.876903467806598
0.4700000000000003,0.8057511062056535,1.2086266593084802,-5.312842470818149,-4.104215811509669,3.834970110773312
0.4750000000000003,0.8102193389597873,1.2153290084396808,-5.319634512055384,-4.104305503615702,3.776483074336137
0.4800000000000003,0.8148901234153709,1.2223351851230564,-5.326733447901872,-4.104398262778815,3.7158360118174287
0.4850000000000003,0.8187402009006536,1.2281103013509802,-5.33258498396437,-4.10447468261339,3.6679412572715564
0.4900000000000003,0.8209087936572611,1.2313631904858917,-5.33588894167365,-4.104525751187759,3.644894431460882
0.49500000000000033,0.8208289696794627,1.2312434545191941,-5.335786562235481,-4.104543107716287,3.654699455096494
0.5000000000000003,0.8183084644519097,1.2274626966778646,-5.331985777306794,-4.104523080628929,3.699909697456392
0.5050000000000003,0.8135770859107904,1.2203656288661855,-5.324830292011315,-4.104464663145129,3.7771211030565977
0.5100000000000003,0.807276637054146,1.2109149555812189,-5.315293468748241,-4.104378513167022,3.8764592968768787
0.5150000000000003,0.8003243961338006,1.2004865942007008,-5.304780975059957,-4.1042943808592565,3.9839860647962873
0.5200000000000004,0.7936230551869603,1.1904345827804403,-5.294679369260133,-4.1042447864796925,4.085893253943944
0.5250000000000004,0.7877526077139205,1.1816289115708807,-5.28586817338889,-4.10423926181801,4.173871713447696
0.5300000000000004,0.7828918958333314,1.1743378437499972,-5.278590571423881,-4.104252727673884,4.246446591283856
0.5350000000000004,0.7790192205504443,1.1685288308256663,-5.272782122031812,-4.104253291206145,4.305180338442977
0.5400000000000004,0.7761819295463778,1.1642728943195666,-5.268502949623997,-4.10423005530443,4.350178997393078
0.5450000000000004,0.774631474801016,1.161947212201524,-5.266135664267745,-4.104188452066221,4.377920534807034
0.5500000000000004,0.7747684190130033,1.162152628519505,-5.26630035997204,-4.104147731452534,4.382186446694375
0.5550000000000004,0.7769642553287417,1.1654463829931125,-5.269575680331803,-4.10412929733869,4.357091992836239
0.5600000000000004,0.7813575360687525,1.1720363041031288,-5.276183853442051,-4.104147549338922,4.300064967724846
0.5650000000000004,0.7877266343284919,1.1815899514927377,-5.285789689298462,-4.104199737805724,4.21427723725699
0.5700000000000004,0.7955136507172562,1.1932704760758843,-5.297540302027867,-4.104269825951983,4.107856979169421
0.5750000000000004,0.8039770433052983,1.2059655649579475,-5.310302478365815,-4.1043369134078675,3.9916933096019793
0.5800000000000004,0.8123794642445964,1.2185691963668945,-5.322958601834413,-4.1043894054675185,3.8764482587003273
0.5850000000000004,0.820114030751544,1.230171046127316,-5.334596069981843,-4.104425023854526,3.770432105465986
0.5900000000000004,0.8267393580704203,1.2401090371056305,-5.344555621563271,-4.10444658445764,3.679773902467377
0.5950000000000004,0.831969856910448,1.247954785365672,-5.352414245161136,-4.104459459795463,3.6082506138383206
0.6000000000000004,0.83564710139205,1.253470652088075,-5.357935451589079,-4.104464799501003,3.557834282848782
0.6050000000000004,0.8377152092711357,1.2565728139067036,-5.361036926441998,-4.104464112535294,3.5291112329440493
0.6100000000000004,0.8382067553510054,1.2573101330265082,-5.3617690750092075,-4.1044589419827,3.5216634122521135
0.6150000000000004,0.83722492216907,1.255837383253605,-5.360286181991056,-4.104448798737453,3.5341517393144684
0.6200000000000004,0.834955274692893,1.2524329120393396,-5.3568578229584976,-4.104424910919158,3.564456900946658
0.6250000000000004,0.8317150640814631,1.2475725961221946,-5.351957850197929,-4.104385254075734,3.6084157309488303
0.6300000000000004,0.8279921555635203,1.2419882333452805,-5.346315493599864,-4.104327260254583,3.6592856672760177
0.6350000000000005,0.8244166759374751,1.2366250139062127,-5.340891201138216,-4.104266187232004,3.707868174002686
0.6400000000000005,0.8216303482190428,1.2324455223285642,-5.336667450065555,-4.10422192773699,3.744709668805117
0.6450000000000005,0.8200773813641202,1.2301160720461803,-5.334329886598741,-4.104213814552561,3.7630620534835515
0.6500000000000005,0.8198262475703878,1.2297393713555815,-5.333989797576676,-4.1042504262210935,3.76182294433403
0.6550000000000005,0.8205237409117814,1.230785611367672,-5.335104619230101,-4.104319007862428,3.7463004058306595
0.6600000000000005,0.821509580687983,1.2322643710319745,-5.336658882419394,-4.10439451138742,3.726550647799806
0.6650000000000005,0.8220463622679732,1.2330695434019598,-5.337523089603831,-4.104453546201871,3.713735733043821
0.6700000000000005,0.8215677276611489,1.2323515914917234,-5.336828037054071,-4.104476445562347,3.7163644800384263
0.6750000000000005,0.8198648667864825,1.2297973001797238,-5.334255208257287,-4.1044579080775625,3.7375288898561543
0.6800000000000005,0.8171582074663881,1.2257373111995822,-5.33013941526316,-4.104402104063578,3.774035281739896
0.6850000000000005,0.8140210304567381,1.221031545685107,-5.3253633774040505,-4.104331831718945,3.8171208495618094
0.6900000000000005,0.8111735421251509,1.2167603131877263,-5.3210331012685,-4.104272788080774,3.8560206788716145
0.6950000000000005,0.8092144741006174,1.2138217111509262,-5.318070389891809,-4.104248678740883,3.8816453017431503
0.7000000000000005,0.8083909973254113,1.212586495988117,-5.316853857172739,-4.104267361184622,3.8904057131483354
0.7050000000000005,0.8085348384086474,1.2128022576129711,-5.317116407060313,-4.104314149447342,3.8853542863777637
0.7100000000000005,0.8091929328092818,1.2137893992139228,-5.318152879445242,-4.10436348023132,3.8737120209463964
0.7150000000000005,0.8098645220841477,1.2147967831262214,-5.319189033497016,-4.104392250370795,3.8632744450082392
0.7200000000000005,0.810233087862746,1.215349631794119,-5.31973767203614,-4.1043880402420205,3.858980824105412
0.7250000000000005,0.810301181343047,1.2154517720145706,-5.319803241504092,-4.104351469489521,3.8606369462292776
0.7300000000000005,0.8103806356259183,1.2155709534388774,-5.319869430009946,-4.104298476571068,3.863260290338282
0.7350000000000005,0.8109405719283762,1.2164108578925643,-5.320663507344644,-4.1042526494520795,3.85962686069344
0.7400000000000005,0.8123804264149471,1.2185706396224207,-5.322805664482831,-4.104235024860411,3.8431066663818045
0.7450000000000006,0.8148450525144616,1.2222675787716923,-5.326517642961816,-4.104250064190123,3.811644358726094
0.7500000000000006,0.8181710449354291,1.2272565674031437,-5.331545153528766,-4.104288586125622,3.7680337755054687
0.7550000000000006,0.821978867675604,1.232968301513406,-5.337297311720666,-4.10432901020726,3.71811062238867
0.7600000000000006,0.8258431992203177,1.2387647988304766,-5.343122481724474,-4.104357682893997,3.6684036409445953
0.7650000000000006,0.8294442142636238,1.2441663213954357,-5.34853423063642,-4.104367909240984,3.623401441460409
0.7700000000000006,0.8326402097963665,1.2489603146945498,-5.353320750120522,-4.104360435425972,3.5850802017345296
0.7750000000000006,0.8354482860871112,1.2531724291306667,-5.357518326086549,-4.1043458969558815,3.552716319166906
0.7800000000000006,0.8379611874824089,1.2569417812236134,-5.361276708657234,-4.10433492743362,3.5245510734278813
0.7850000000000006,0.840244440575487,1.2603666608632305,-5.3647029559828106,-4.10433629511958,3.499327304998508
0.7900000000000006,0.8422580455076777,1.2633870682615165,-5.3677384250501206,-4.104351356788604,3.477456943548152
0.7950000000000006,0.8438437281112213,1.265765592166832,-5.370139232772606,-4.104373640605774,3.4611944741968097
0.8000000000000006,0.8447778901621702,1.2671668352432552,-5.371562247215027,-4.104395411971772,3.4537770189127075
0.8050000000000006,0.8448475220370901,1.2672712830556352,-5.371683139705266,-4.104411856649631,3.4583156440551086
0.8100000000000006,0.8439045991413401,1.2658568987120102,-5.370279295053741,-4.10442239634173,3.4769612188333894
0.8150000000000006,0.841887122886674,1.262830684330011,-5.367257243194824,-4.104426558864812,3.5105266106709716
0.8200000000000006,0.8388202563942726,1.258230384591409,-5.362654110551932,-4.104423725960523,3.558534136821343
0.8250000000000006,0.8348061190907623,1.2522091786361433,-5.356622141265899,-4.104412962629755,3.6195723584207578
0.8300000000000006,0.8300334309080729,1.2450501463621095,-5.34944373011557,-4.10439358375346,3.691031973129483
0.8350000000000006,0.8247940998310584,1.2371911497465875,-5.341555560832418,-4.1043644110858315,3.768776373807116
0.8400000000000006,0.8194650999435746,1.229197649915362,-5.333529555696447,-4.104331905781084,3.8471425444362604
0.8450000000000006,0.8144339709205993,1.221650956380899,-5.325961436253477,-4.104310479872578,3.9201835592541507
0.8500000000000006,0.8099807876985496,1.2149711815478246,-5.319276924990688,-4.104305743442863,3.9837826603693576
0.8550000000000006,0.8061968260836635,1.2092952391254952,-5.31361242666756,-4.1043171875420645,4.036558412859499
0.8600000000000007,0.8030061157371823,1.2045091736057734,-5.3088438036624686,-4.104334630056695,4.079919306907951
0.8650000000000007,0.8002554343662265,1.2003831515493397,-5.30473006604381,-4.10434691449447,4.1163221025691366
0.8700000000000007,0.7977887617964974,1.196683142694746,-5.301041864362079,-4.104358721667333,4.1479923273764365
0.8750000000000007,0.7954588459096446,1.1931882688644668,-5.297560534478313,-4.104372265613845,4.177106158269785
0.8800000000000007,0.7931092946158236,1.1896639419237354,-5.2940479509408185,-4.104384009017084,4.205897272508892
