time,temperature,KE,PE,TE,P
0.0,0.846789452825597,1.2701841792383954,-5.332796797396737,-4.062612618158341,12.242806681131206
0.005,0.8388221676575773,1.2582332514863661,-5.320801217366307,-4.06256796587994,12.365612359139595
0.01,0.8152743805037844,1.2229115707556766,-5.285374760452656,-4.062463189696979,12.727880716517829
0.015,0.7773952499836229,1.1660928749754345,-5.228377349540485,-4.06228447456505,13.311690957335234
0.02,0.7272999104356335,1.0909498656534502,-5.152964915522421,-4.062015049868972,14.086426999555474
0.025,0.6680942808980552,1.0021414213470827,-5.063787908963535,-4.061646487616453,15.005972374614535
0.030000000000000002,0.6039262419872223,0.9058893629808336,-4.967072704016045,-4.061183341035212,16.006957311460038
0.035,0.5398588393140765,0.8097882589711148,-4.8704493972776435,-4.0606611383065285,17.010446321752443
0.04,0.4814556197378708,0.7221834296068063,-4.78233348176205,-4.060150052155244,17.928227272488567
0.045,0.43404324787596016,0.6510648718139402,-4.710810794388627,-4.059745922574687,18.674648790514414
0.049999999999999996,0.40179138764805855,0.6026870814720878,-4.662218390514429,-4.059531309042342,19.1818426036408
0.05499999999999999,0.3868962291587771,0.5803443437381657,-4.639893904412452,-4.059549560674287,19.413945698985138
0.05999999999999999,0.3891759763223718,0.5837639644835576,-4.643546440165214,-4.059782475681657,19.374089618289727
0.06499999999999999,0.40624272536147493,0.6093640880422124,-4.669526222951756,-4.060162134909543,19.101388107617755
0.06999999999999999,0.4341670038919242,0.6512505058378862,-4.711847023545057,-4.06059651770717,18.65973134883325
0.075,0.46837050088750787,0.7025557513312618,-4.763560206748848,-4.061004455417586,18.122710581737664
0.08,0.5044630824393612,0.7566946236590418,-4.81802543975952,-4.061330816100478,17.559952628715696
0.085,0.5388459441951503,0.8082689162927256,-4.86981554514751,-4.061546628854785,17.027564650883193
0.09000000000000001,0.5690261340331572,0.8535392010497358,-4.915190102137156,-4.06165090108742,16.563847766175737
0.09500000000000001,0.5936772576789671,0.8905158865184506,-4.952174005773006,-4.061658119254556,16.188617338125734
0.10000000000000002,0.6125320608462329,0.9187980912693493,-4.980386591265041,-4.0615884999956915,15.904840353326929
0.10500000000000002,0.6261716000328748,0.9392574000493122,-5.000723930096147,-4.061466530046834,15.70286047547742
0.11000000000000003,0.6357804440455687,0.953670666068353,-5.014985133569923,-4.06131446750157,15.564011808833902
0.11500000000000003,0.6429119147764478,0.9643678721646718,-5.025519182022295,-4.061151309857624,15.463765797204633
0.12000000000000004,0.6492722554533701,0.9739083831800551,-5.0349016953667505,-4.060993312186695,15.375711338650033
0.12500000000000003,0.6565290124439376,0.9847935186659064,-5.045651174150754,-4.060857655484847,15.273845795586661
0.13000000000000003,0.6661274730582852,0.9991912095874278,-5.059949614874534,-4.060758405287106,15.135699660204493
0.13500000000000004,0.6791138683731868,1.0186708025597802,-5.079382646023791,-4.060711843464011,14.94488591294747
0.14000000000000004,0.6960017921481813,1.044002688222272,-5.104723622511178,-4.060720934288906,14.693517784117754
0.14500000000000005,0.7167255904396814,1.0750883856595221,-5.13586767249563,-4.060779286836109,14.383005760857051
0.15000000000000005,0.7406993245024042,1.1110489867536062,-5.1719219977554465,-4.06087301100184,14.023017869469387
0.15500000000000005,0.7669654440367294,1.150448166055094,-5.2114319557676225,-4.0609837897125285,13.629065463042727
0.16000000000000006,0.7943853319332266,1.1915779978998398,-5.25267176237889,-4.06109376447905,13.219200589242385
0.16500000000000006,0.8218277254490907,1.232741588173636,-5.293929610050665,-4.0611880218770295,12.811497897769746
0.17000000000000007,0.8483292921810651,1.2724939382715976,-5.33375244378197,-4.061258505510373,12.42073158952953
0.17500000000000007,0.8731958152120248,1.3097937228180372,-5.371094493623901,-4.061300770805864,12.057590505546363
0.18000000000000008,0.8960350746192471,1.3440526119288707,-5.405371983285351,-4.06131937135648,11.72757945231477
0.18500000000000008,0.916716448652734,1.375074672979101,-5.436399816733208,-4.061325143754107,11.432151645013688
0.19000000000000009,0.9352697362706318,1.4029046044059479,-5.464237001270995,-4.061332396865047,11.169858423613839
0.1950000000000001,0.951758091610351,1.4276371374155266,-5.488986818319176,-4.061349680903649,10.939450454623747
0.2000000000000001,0.9661892538099455,1.4492838807149182,-5.51066169541297,-4.0613778146980515,10.740371454979261
0.2050000000000001,0.9785151129993999,1.4677726694990998,-5.529181820999805,-4.061409151500706,10.573667557720741
0.2100000000000001,0.9886910774269873,1.4830366161404809,-5.544471827293601,-4.061435211153121,10.440204220946583
0.2150000000000001,0.9967466776205941,1.495120016430891,-5.5565739943582235,-4.061453977927333,10.339549752367649
0.2200000000000001,1.002819767920107,1.5042296518801603,-5.56569566422369,-4.06146601234353,10.269071924039121
0.22500000000000012,1.0071344856160815,1.5107017284241224,-5.572178717515516,-4.061476989091394,10.225067888767802
0.23000000000000012,1.0099677592351821,1.514951638852773,-5.576435323483853,-4.06148368463108,10.203362878293992
0.23500000000000013,1.0116592282518426,1.517488842377764,-5.5789674222742125,-4.061478579896448,10.19866471704637
0.24000000000000013,1.0126560162328955,1.5189840243493433,-5.58044225091456,-4.061458226565216,10.204297662697494
0.24500000000000013,1.0135257871785983,1.5202886807678975,-5.581715087394517,-4.06142640662662,10.211377727731083
0.2500000000000001,1.0149013677157794,1.5223520515736693,-5.583747329804215,-4.061395278230546,10.20969455795995
0.2550000000000001,1.0173365409092505,1.5260048113638758,-5.5873907046851095,-4.0613858933212335,10.189837335904606
0.2600000000000001,1.0210762760324368,1.5316144140486552,-5.593040095782775,-4.0614256817341206,10.146902423945475
0.2650000000000001,1.0258413073975232,1.538761961096285,-5.600282811472733,-4.061520850376449,10.085195374814264
0.27000000000000013,1.0308128763223496,1.5462193144835246,-5.60785807284875,-4.061638758365226,10.018643328505519
0.27500000000000013,1.0349380638326044,1.5524070957489067,-5.6141389456291835,-4.061731849880277,9.965294997080761
0.28000000000000014,1.0373862528492643,1.5560793792738965,-5.61784635568167,-4.061766976407773,9.93949317684565
0.28500000000000014,1.0378591669445874,1.556788750416881,-5.618537211492396,-4.061748461075514,9.94606256695404
0.29000000000000015,1.0366165426074427,1.5549248139111642,-5.616618376027931,-4.0616935621167665,9.980635258893853
0.29500000000000015,1.0343115384009198,1.5514673076013796,-5.613091374946601,-4.061624067345221,10.032342161366676
0.30000000000000016,1.031772523375419,1.5476587850631283,-5.609219848325856,-4.061561063262728,10.087365920098351
0.30500000000000016,1.0297603001128506,1.5446404501692759,-5.606175014251882,-4.061534564082606,10.132770513719743
0.31000000000000016,1.028688740127102,1.5430331101906531,-5.604594971204824,-4.061561861014171,10.161293752330526
0.31500000000000017,1.0284664035112254,1.5426996052668382,-5.604326453175762,-4.061626847908924,10.175054514584446
0.3200000000000002,1.0286547162574124,1.5429820743861187,-5.604663383624518,-4.061681309238399,10.182270020193956
0.3250000000000002,1.0288556455854112,1.543283468378117,-5.604980279693998,-4.061696811315882,10.189995589417562
0.3300000000000002,1.0289854147827022,1.5434781221740534,-5.605161938047518,-4.061683815873464,10.199038758554908
0.3350000000000002,1.0291766843646664,1.5437650265469995,-5.605448809304378,-4.061683782757379,10.205951559766685
0.3400000000000002,1.0294662944934856,1.5441994417402285,-5.60591367314359,-4.061714231403362,10.209410944597417
0.3450000000000002,1.0296493940278861,1.544474091041829,-5.6062277286552105,-4.061753637613382,10.213229441238576
0.3500000000000002,1.0294602128676722,1.5441903193015083,-5.605960939609066,-4.061770620307557,10.222817161459604
0.3550000000000002,1.0288300850054675,1.5432451275082013,-5.605002808474868,-4.061757680966667,10.23942802186947
0.3600000000000002,1.0279507806701749,1.5419261710052623,-5.603663419297798,-4.061737248292536,10.259385079984458
0.3650000000000002,1.0271303752992498,1.5406955629488746,-5.602419405103159,-4.061723842154285,10.27704392358273
0.3700000000000002,1.0266062692007003,1.5399094038010506,-5.601637811055645,-4.061728407254594,10.288236507377079
0.3750000000000002,1.0264454762734967,1.5396682144102452,-5.601417234992514,-4.061749020582269,10.29183440844211
0.3800000000000002,1.0265352521102087,1.5398028781653128,-5.60157814810661,-4.061775269941297,10.28997999878326
0.38500000000000023,1.0267132594728263,1.5400698892092395,-5.601845727585693,-4.0617758383764535,10.286176478469864
0.39000000000000024,1.0270114433671536,1.5405171650507306,-5.602250782614131,-4.061733617563401,10.280672603185305
0.39500000000000024,1.0277980493341758,1.5416970740012637,-5.60336723938291,-4.0616701653816465,10.267471446518742
0.40000000000000024,1.029604782228363,1.5444071733425444,-5.606031646427499,-4.0616244730849544,10.237219079400788
0.40500000000000025,1.032799053839191,1.5491985807587862,-5.610806462077121,-4.061607881318335,10.184108218570548
0.41000000000000025,1.0374541859685744,1.5561812789528615,-5.61779385224903,-4.061612573296169,10.107575472226596
0.41500000000000026,1.0433667267117328,1.5650500900675992,-5.626698328349182,-4.061648238281583,10.010475649841947
0.42000000000000026,1.0499818169400397,1.5749727254100594,-5.636704143476599,-4.0617314180665405,9.901241467745143
0.42500000000000027,1.056356670426581,1.5845350056398715,-5.646367632940538,-4.061832627300666,9.795624758251398
0.43000000000000027,1.061426221261886,1.592139331892829,-5.654041154832683,-4.061901822939854,9.711989800280579
0.4350000000000003,1.0644526162723686,1.5966789244085529,-5.658594326026217,-4.0619154016176635,9.66292877772855
0.4400000000000003,1.0652785549882582,1.5979178324823873,-5.659798280307221,-4.061880447824834,9.65057045219185
0.4450000000000003,1.0642987559835053,1.596448133975258,-5.658258760414872,-4.061810626439613,9.668128797202
0.4500000000000003,1.0623128865227927,1.593469329784189,-5.655192058666638,-4.061722728882449,9.702110215264533
0.4550000000000003,1.0603015123930437,1.5904522685895657,-5.652099506849693,-4.061647238260127,9.735459992812142
0.4600000000000003,1.059073104656502,1.5886096569847532,-5.650236704432423,-4.0616270474476694,9.75385166292404
0.4650000000000003,1.0588446034073657,1.5882669051110485,-5.649953412409689,-4.06168650729864,9.752950889369234
0.4700000000000003,1.059062741384627,1.5885941120769402,-5.650385902105638,-4.061791790028698,9.742688630416948
0.4750000000000003,1.058743503818518,1.588115255727777,-5.649979204061176,-4.061863948333399,9.741587043168428
0.4800000000000003,1.0571747780185736,1.5857621670278603,-5.647614757542612,-4.061852590514752,9.763103506803791
0.4850000000000003,1.0544295428642183,1.5816443142963277,-5.643408439497971,-4.061764125201643,9.80657131595481
0.4900000000000003,1.0513326542054038,1.5769989813081056,-5.638647908494242,-4.061648927186137,9.857578150303553
0.49500000000000033,1.0490222778546918,1.5735334167820376,-5.635096863219158,-4.061563446437121,9.89634234163892
0.5000000000000003,1.0484031049864673,1.5726046574797008,-5.634153973997143,-4.061549316517442,9.907065154333898
0.5050000000000003,1.049730086720629,1.5745951300809435,-5.636203794309311,-4.061608664228367,9.885276979252373
0.5100000000000003,1.0525502833496896,1.5788254250245344,-5.640524997752712,-4.061699572728178,9.839437067670476
0.5150000000000003,1.056061844292954,1.5840927664394309,-5.645857857976707,-4.061765091537277,9.784173042261942
0.5200000000000004,1.059618210058827,1.5894273150882405,-5.651213088770261,-4.06178577368202,9.730191599622927
0.5250000000000004,1.0629677188333313,1.5944515782499968,-5.656224416942417,-4.061772838692421,9.681046133757347
0.5300000000000004,1.0661473284954162,1.5992209927431242,-5.660979396857558,-4.061758404114434,9.634837010275627
0.5350000000000004,1.069202683566607,1.6038040253499106,-5.665577520756013,-4.061773495406103,9.589787840316362
0.5400000000000004,1.071917558746271,1.6078763381194068,-5.669699113765162,-4.061822775645755,9.54929771032245
0.5450000000000004,1.073814821521861,1.6107222322827914,-5.672588420319211,-4.0618661880364195,9.522743879298366
0.5500000000000004,1.074513504903581,1.6117702573553716,-5.673621897021994,-4.061851639666623,9.51809008622122
0.5550000000000004,1.0741697600799758,1.6112546401199637,-5.673014668079006,-4.061760027959043,9.533951679925678
0.5600000000000004,1.0736292637449083,1.6104438956173623,-5.672070329042141,-4.061626433424778,9.555948696562625
0.5650000000000004,1.07408932595795,1.6111339889369252,-5.672658646051505,-4.061524657114579,9.562975264862537
0.5700000000000004,1.0764170835390918,1.6146256253086375,-5.6761396356278135,-4.0615140103191765,9.539302677890234
0.5750000000000004,1.0806438708017565,1.6209658062026349,-5.682548783783591,-4.061582977580956,9.484672821848108
0.5800000000000004,1.086033241004376,1.6290498615065643,-5.6907308548185735,-4.0616809933120095,9.411916321134202
0.5850000000000004,1.0915075247624997,1.6372612871437495,-5.699037101202583,-4.061775814058833,9.338617463851852
0.5900000000000004,1.0959805378107124,1.6439708067160683,-5.705833869699343,-4.061863062983275,9.281784187092105
0.5950000000000004,1.0984894988063139,1.6477342482094708,-5.709669956792042,-4.061935708582571,9.256165459596806
0.6000000000000004,1.098283639526111,1.6474254592891666,-5.7094047798842125,-4.061979320595046,9.273860759154044
0.6050000000000004,1.0950046895077474,1.642507034261621,-5.704474982647584,-4.061967948385963,9.340838732183492
0.6100000000000004,1.0889139221202553,1.633370883180383,-5.695259696479666,-4.061888813299283,9.45333694327663
0.6150000000000004,1.0809717807009736,1.6214576710514603,-5.683220172997389,-4.061762501945929,9.59542198696374
0.6200000000000004,1.0726153551898576,1.6089230327847865,-5.67056097977165,-4.061637946986863,9.743163486280757
0.6250000000000004,1.065295498477329,1.5979432477159938,-5.659497212197777,-4.061553964481783,9.872272646126607
0.6300000000000004,1.0600585163157499,1.5900877744736248,-5.651612393250486,-4.06152461877686,9.965792066993716
0.6350000000000005,1.0573574210527188,1.586036131579078,-5.647581447346642,-4.061545315767565,10.016636637601817
0.6400000000000005,1.0570444227291527,1.5855666340937289,-5.647177530905102,-4.061610896811373,10.02722948807428
0.6450000000000005,1.0584619353186449,1.5876929029779672,-5.649396874629096,-4.061703971651129,10.008618839266944
0.6500000000000005,1.0606148909103934,1.5909223363655902,-5.65272466878814,-4.06180233242255,9.977193560124975
0.6550000000000005,1.0624194544144465,1.5936291816216699,-5.655506253848558,-4.061877072226888,9.951263862420696
0.6600000000000005,1.0630176205002042,1.5945264307503064,-5.6564265039680794,-4.061900073217773,9.945306431163315
0.6650000000000005,1.0620131388643212,1.5930197082964819,-5.65490132186562,-4.061881613569138,9.965257012374407
0.6700000000000005,1.0594317043303372,1.5891475564955058,-5.65100021731928,-4.0618526608237735,10.00957885528546
0.6750000000000005,1.0554787789817972,1.5832181684726956,-5.645049295973624,-4.061831127500929,10.074367816626225
0.6800000000000005,1.0503943280458374,1.575591492068756,-5.637394653841457,-4.0618031617727,10.155936219893071
0.6850000000000005,1.0445546342959033,1.566831951443855,-5.628576145094606,-4.0617441936507515,10.24907223017525
0.6900000000000005,1.0386530864812467,1.55797962972187,-5.619631941137462,-4.0616523114155925,10.342325600162036
0.6950000000000005,1.033670397434405,1.5505055961516074,-5.612069234544205,-4.061563638392599,10.419214677110318
0.7000000000000005,1.0305274941787053,1.545791241268058,-5.607317476837203,-4.061526235569144,10.463652218042766
0.7050000000000005,1.0296724129540429,1.5445086194310642,-5.606054356968739,-4.061545737537675,10.46900108183963
0.7100000000000005,1.0310027135555435,1.5465040703333153,-5.608087848967534,-4.061583778634219,10.438663859855465
0.7150000000000005,1.0341834038284794,1.5512751057427192,-5.612876565753217,-4.061601460010497,10.379783128844224
0.7200000000000005,1.0389902143885341,1.5584853215828012,-5.620077866376509,-4.061592544793708,10.296649029661243
0.7250000000000005,1.0453773462642526,1.5680660193963791,-5.629646973809724,-4.061580954413345,10.189421477067949
0.7300000000000005,1.0533000739808438,1.5799501109712657,-5.641542648021903,-4.061592537050638,10.057957971337572
0.7350000000000005,1.062482465896303,1.5937236988444545,-5.655364485155975,-4.0616407863115205,9.905706576713849
0.7400000000000005,1.0723054813352813,1.608458222002922,-5.670174182832677,-4.061715960829756,9.7426097395157
0.7450000000000006,1.0819138089786708,1.6228707134680063,-5.684662690530203,-4.061791977062197,9.582716340907961
0.7500000000000006,1.090459794847197,1.6356896922707953,-5.697537607502553,-4.061847915231757,9.440180755597408
0.7550000000000006,1.0973159582348866,1.6459739373523299,-5.707849315385093,-4.061875378032762,9.325172906769629
0.7600000000000006,1.1021847087489878,1.6532770631234817,-5.7151474666657,-4.061870403542218,9.242744942628008
0.7650000000000006,1.1051403930581851,1.657710589587278,-5.719543218036429,-4.061832628449151,9.191622010594022
0.7700000000000006,1.1066057325502758,1.6599085988254136,-5.7216850332142375,-4.061776434388824,9.16480534149817
0.7750000000000006,1.1071675627629656,1.6607513441444484,-5.722490454725562,-4.061739110581113,9.152094951317732
0.7800000000000006,1.1072505654073466,1.66087584811102,-5.722618836880295,-4.061742988769275,9.145853133815972
0.7850000000000006,1.1069007070176011,1.6603510605264018,-5.722126245326947,-4.061775184800545,9.145896757792038
0.7900000000000006,1.105886379378227,1.6588295690673402,-5.720631675126505,-4.061802106059164,9.156591220933723
0.7950000000000006,1.1039650630713749,1.6559475946070625,-5.7177638608453965,-4.061816266238334,9.182176590639306
0.8000000000000006,1.1010027363742185,1.6515041045613277,-5.713324664539629,-4.0618205599783,9.224706653470804
0.8050000000000006,1.096989265100211,1.6454838976503168,-5.7072863092837895,-4.061802411633472,9.285033478866476
0.8100000000000006,1.092127905928541,1.6381918588928115,-5.699952919795495,-4.061761060902683,9.359935568585417
0.8150000000000006,1.0868158891103428,1.6302238336655142,-5.691954535364505,-4.06173070169899,9.442181839190122
0.8200000000000006,1.0813840997915518,1.6220761496873277,-5.683808658200772,-4.061732508513445,9.52634178924664
0.8250000000000006,1.0759929390654248,1.6139894085981372,-5.675708990685042,-4.061719582086904,9.61129403302694
0.8300000000000006,1.071003101591827,1.6065046523877407,-5.668139279361344,-4.0616346269736034,9.693034121671703
0.8350000000000006,1.0673936677506057,1.6010905016259085,-5.662589302075952,-4.061498800450043,9.755005690445874
0.8400000000000006,1.0664476717317735,1.5996715075976602,-5.66111554788335,-4.06144404028569,9.772526871363837
0.8450000000000006,1.0686455453138053,1.6029683179707082,-5.66452155497001,-4.061553236999302,9.735521262149588
0.8500000000000006,1.073055726469678,1.6095835897045172,-5.671297805027433,-4.061714215322916,9.662561237310989
0.8550000000000006,1.0782050004610053,1.6173075006915079,-5.679083089923165,-4.061775589231657,9.58179813169594
0.8600000000000007,1.083330722737253,1.6249960841058797,-5.6867258401201894,-4.06172975601431,9.50584977198573
0.8650000000000007,1.0885679934976216,1.6328519902464322,-5.694525763716,-4.061673773469568,9.429767538910527
0.8700000000000007,1.0941929323670707,1.641289398550606,-5.702979627941733,-4.061690229391127,9.345842455059136
0.8750000000000007,1.0998915389879778,1.6498373084819666,-5.71162350725146,-4.061786198769493,9.258437826244922
0.8800000000000007,1.1046589526318444,1.6569884289477665,-5.718896180218309,-4.0619077512705415,9.184542648683772
