time,temperature,KE,PE,TE,P
0.0,0.7262969250141665,1.08944538752125,-3.2508990571991623,-2.161453669677912,28.066886240959114
0.001,0.7264960287807479,1.0897440431711218,-3.251197340868314,-2.161453297697192,28.060673186031106
0.002,0.7258275316909524,1.0887412975364286,-3.2501938852764023,-2.1614525877399737,28.06752129530615
0.003,0.7242982881794153,1.086447432269123,-3.247898974572943,-2.16145154230382,28.0873268416521
0.004,0.7219189059548367,1.082878358932255,-3.2443285225345457,-2.161450163602291,28.11993009145089
0.005,0.7187037181663682,1.0780555772495524,-3.2395040308936953,-2.161448453644143,28.165115635604174
0.006,0.7146707553583114,1.072006133037467,-3.2334525473854523,-2.1614464143479855,28.222612683102753
0.007,0.7098417161121177,1.0647625741681765,-3.226206621859116,-2.161444047690939,28.292095336248956
0.008,0.7042419349431642,1.0563629024147463,-3.217804258304326,-2.1614413558895795,28.37318287224423
0.009000000000000001,0.6979003457078411,1.0468505185617616,-3.208288860172467,-2.1614383416107055,28.46544006121127
0.010000000000000002,0.6908509947253125,1.0362764920879688,-3.1977112051155308,-2.161434713027562,28.568701278026793
0.011000000000000003,0.6831305142455496,1.0246957713683245,-3.186126075398769,-2.161430304030444,28.681935489548135
0.012000000000000004,0.6747780157074156,1.0121670235611233,-3.1735932858109375,-2.161426262249814,28.804871714217622
0.013000000000000005,0.6658382091247415,0.9987573136871122,-3.1601786873642825,-2.1614213736771704,28.937105000156944
0.014000000000000005,0.6563576810691418,0.9845365216037129,-3.14595363811215,-2.161417116508437,29.07736628044419
0.015000000000000006,0.6463856918991009,0.9695785378486513,-3.13099102436305,-2.161412486514399,29.225396136753595
0.016000000000000007,0.6359757315535447,0.9539635973303171,-3.1153702888082133,-2.161406691477896,29.380316975839815
0.017000000000000008,0.6251826130759746,0.937773919613962,-3.099175645642277,-2.1614017260283154,29.54088035457372
0.01800000000000001,0.6140633784314102,0.9210950676471155,-3.0824925823740736,-2.1613975147269584,29.706446940064193
0.01900000000000001,0.6026777093431375,0.9040165640147063,-3.0654076639111993,-2.1613910998964934,29.87593313211169
0.02000000000000001,0.5910872171318373,0.886630825697756,-3.048016269232806,-2.1613854435350497,30.04845912578608
0.02100000000000001,0.5793562547551284,0.8690343821326926,-3.030414253544894,-2.1613798714122017,30.22319659132271
0.022000000000000013,0.5675503406607363,0.8513255109911044,-3.0126990493080985,-2.161373538316994,30.39872070590517
0.023000000000000013,0.5557358842731844,0.8336038264097766,-2.9949705935327553,-2.1613667671229786,30.57431616926301
0.024000000000000014,0.5439802732162875,0.8159704098244313,-2.9773312717712734,-2.161360861946842,30.748600535515664
0.025000000000000015,0.5323516472182281,0.7985274708273422,-2.959880965604961,-2.1613534947776185,30.9210786490632
0.026000000000000016,0.5209181902748033,0.781377285412205,-2.942724772455475,-2.16134748704327,31.09011164930995
0.027000000000000017,0.5097470098792206,0.7646205148188309,-2.925961323961099,-2.161340809142268,31.25472038447432
0.028000000000000018,0.49890406844437685,0.7483561026665653,-2.9096908832864377,-2.1613347806198724,31.41361088873651
0.02900000000000002,0.48845507339389843,0.7326826100908477,-2.8940111759882594,-2.1613285658974117,31.566811568931108
0.03000000000000002,0.4784635457661481,0.7176953186492221,-2.879017964895675,-2.161322646246453,31.71218513362163
0.03100000000000002,0.46898977124609215,0.7034846568691383,-2.8648016256039615,-2.161316968734823,31.84958515626634
0.03200000000000002,0.46009246025860184,0.6901386903879028,-2.8514507057591967,-2.1613120153712937,31.978016386887628
0.03300000000000002,0.45182534194197843,0.6777380129129676,-2.839045252780438,-2.1613072398674706,32.09580897149679
0.03400000000000002,0.4442379135795986,0.6663568703693978,-2.8276593864046644,-2.1613025160352666,32.20306395796801
0.035000000000000024,0.4373756491787033,0.656063473768055,-2.817361956575175,-2.16129848280712,32.298245092742135
0.036000000000000025,0.4312789171906118,0.6469183757859177,-2.8082137134507494,-2.1612953376648316,32.3815201247074
0.037000000000000026,0.42598307082350856,0.6389746062352628,-2.800267282799219,-2.161292676563956,32.45167807590904
0.03800000000000003,0.42151802152720863,0.6322770322908129,-2.7935679384742707,-2.1612909061834578,32.50889678843721
0.03900000000000003,0.41790854323246635,0.6268628148486995,-2.7881522277963597,-2.1612894129476605,32.55263458502095
0.04000000000000003,0.4151726058329398,0.6227589087494096,-2.7840473815017237,-2.161288472752314,32.582283434658045
0.04100000000000003,0.4133213455666366,0.6199820183499548,-2.781269867220281,-2.161287848870326,32.597497899202054
0.04200000000000003,0.4123604761498306,0.6185407142247459,-2.77982910639768,-2.161288392172934,32.59868027004733
0.04300000000000003,0.41228945914316056,0.6184341887147409,-2.779722831638111,-2.16128864292337,32.585601481074896
0.04400000000000003,0.41310099623134916,0.6196514943470238,-2.7809413361769333,-2.1612898418299094,32.55821011387197
0.04500000000000003,0.4147830132630565,0.6221745198945847,-2.783465884674343,-2.1612913647797587,32.51752471442156
0.046000000000000034,0.41731801822241693,0.6259770273336254,-2.7872704065292635,-2.161293379195638,32.4632711216052
0.047000000000000035,0.4206823515569212,0.6310235273353818,-2.7923200756356037,-2.1612965483002218,32.39566763791784
0.048000000000000036,0.424846961740304,0.6372704426104561,-2.7985701323120264,-2.1612996897015706,32.315013540635604
0.04900000000000004,0.4297794428834022,0.6446691643251033,-2.8059728116073748,-2.161303647282271,32.22273524698962
0.05000000000000004,0.43544332700969457,0.6531649905145419,-2.8144718912689433,-2.1613069007544015,32.118699565331895
0.05100000000000004,0.4417970577351827,0.6626955866027741,-2.8240065214590317,-2.1613109348562576,32.00356245093291
0.05200000000000004,0.4487962525184291,0.6731943787776437,-2.8345097334683516,-2.161315354690708,31.878030391956987
0.05300000000000004,0.4563940426096676,0.6845910639145013,-2.845910565633162,-2.1613195017186606,31.742769744948113
0.05400000000000004,0.464542405475274,0.6968136082129109,-2.8581372657670197,-2.161323657554109,31.599290591648554
0.05500000000000004,0.47319109837369966,0.7097866475605494,-2.871114670345139,-2.1613280227845895,31.447583076024525
0.05600000000000004,0.4822875118996932,0.7234312678495398,-2.884764177837589,-2.161332909988049,31.288793210281433
0.057000000000000044,0.49177942543785946,0.7376691381567893,-2.899006524218432,-2.1613373860616427,31.123994120081992
0.058000000000000045,0.5016154519397295,0.7524231779095942,-2.91376529200817,-2.1613421140985754,30.954013158352154
0.059000000000000045,0.5117438812146404,0.7676158218219606,-2.9289625297319355,-2.1613467079099746,30.778940486209105
0.060000000000000046,0.522112892212275,0.7831693383184125,-2.944520685462817,-2.1613513471444046,30.60023530018667
0.06100000000000005,0.5326721248145482,0.7990081872218222,-2.9603638084780637,-2.161355621256241,30.418524973311737
0.06200000000000005,0.5433729880330532,0.8150594820495798,-2.9764195918666236,-2.1613601098170436,30.234166869551263
0.06300000000000004,0.5541692679314203,0.8312539018971306,-2.992617766691947,-2.1613638647948163,30.04887045767223
0.06400000000000004,0.565016398429433,0.8475245976441494,-3.0088923265585765,-2.161367728914427,29.862602791809003
0.06500000000000004,0.5758711811473962,0.8638067717210943,-3.0251774788599723,-2.161370707138878,29.67602718973403
0.06600000000000004,0.586692879525978,0.8800393192889671,-3.0414133205042777,-2.1613740012153104,29.489764144730188
0.06700000000000005,0.5974444346592271,0.8961666519888406,-3.0575441025912515,-2.161377450602411,29.30471561411797
0.06800000000000005,0.6080919663350574,0.9121379495025861,-3.0735182677606327,-2.1613803182580464,29.121493461184176
0.06900000000000005,0.6186039105043619,0.9279058657565429,-3.0892886759883784,-2.1613828102318355,28.940093086948785
0.07000000000000005,0.6289522879817085,0.9434284319725628,-3.1048138659114595,-2.161385433938897,28.761110443087883
0.07100000000000005,0.6391120287962598,0.9586680431943897,-3.120055590407699,-2.1613875472133093,28.585093002904323
0.07200000000000005,0.6490612997554486,0.9735919496331727,-3.1349803650685324,-2.1613884154353595,28.41237620231329
0.07300000000000005,0.6587810230578702,0.9881715345868053,-3.1495611285652045,-2.161389593978399,28.243000684192822
0.07400000000000005,0.6682549081814831,1.0023823622722245,-3.1637729037911133,-2.1613905415188888,28.07728544666456
0.07500000000000005,0.6774709998952668,1.0162064998429001,-3.1775976938767623,-2.161391194033862,27.915743520919854
0.07600000000000005,0.6864207957983601,1.0296311936975402,-3.191022635808904,-2.161391442111364,27.758271100727022
0.07700000000000005,0.6950979291446185,1.0426468937169278,-3.2040382592630614,-2.161391365546134,27.605125865457346
0.07800000000000006,0.7034980669357381,1.0552471004036073,-3.216638382187363,-2.161391281783756,27.455709275634412
0.07900000000000006,0.7116201632995839,1.067430244949376,-3.2288207223447176,-2.1613904773953414,27.3106813613351
0.08000000000000006,0.7194670729272342,1.0792006093908513,-3.240590186035705,-2.161389576644854,27.17025275468214
0.08100000000000006,0.7270428938074174,1.090564340711126,-3.251953272400425,-2.161388931689299,27.033621788951578
0.08200000000000006,0.7343539215721886,1.101530882358283,-3.2629192421104496,-2.1613883597521664,26.901089408294347
0.08300000000000006,0.7414098339058043,1.1121147508587064,-3.273501978945323,-2.1613872280866167,26.772596580954865
0.08400000000000006,0.7482214725043357,1.1223322087565035,-3.2837180334394596,-2.1613858246829563,26.647646598172546
0.08500000000000006,0.7548016032237589,1.1322024048356383,-3.29358713901941,-2.1613847341837715,26.526445376107304
0.08600000000000006,0.7611640894530339,1.141746134179551,-3.3031291906121605,-2.1613830564326095,26.4080362824328
0.08700000000000006,0.7673244651432221,1.150986697714833,-3.3123677319154066,-2.1613810342005735,26.292657882244235
0.08800000000000006,0.7733007921924641,1.1599511882886961,-3.321329850171181,-2.1613786618824844,26.180201368802223
0.08900000000000007,0.779112696946864,1.1686690454202961,-3.3300456476519944,-2.1613766022316985,26.070294984902684
0.09000000000000007,0.7847802809309796,1.1771704213964693,-3.3385442156848946,-2.1613737942884255,25.96255317023216
0.09100000000000007,0.7903235908284545,1.1854853862426817,-3.34685703409201,-2.1613716478493283,25.856657939528283
0.09200000000000007,0.7957638278692938,1.1936457418039408,-3.355015108684316,-2.1613693668803755,25.75203823872389
0.09300000000000007,0.8011235318426027,1.2016852977639039,-3.3630529017332256,-2.1613676039693215,25.649007283034525
0.09400000000000007,0.8064257471203242,1.2096386206804863,-3.37100363413093,-2.161365013450444,25.54657344188232
0.09500000000000007,0.8116928477990385,1.2175392716985576,-3.3789017275413977,-2.16136245584284,25.444717135170436
0.09600000000000007,0.8169476490743044,1.2254214736114566,-3.3867817535141245,-2.1613602799026674,25.343174360669813
0.09700000000000007,0.8222126280773698,1.2333189421160549,-3.3946773167617463,-2.1613583746456917,25.24111427787925
0.09800000000000007,0.8275104827523099,1.2412657241284648,-3.40262175641761,-2.161356032289145,25.13868528925039
0.09900000000000007,0.832864128474513,1.2492961927117694,-3.4106498039674484,-2.161353611255679,25.035471102836777
0.10000000000000007,0.8382951568189912,1.257442735228487,-3.4187947012328106,-2.161351966004324,24.930900917395142
0.10100000000000008,0.8438248385112641,1.2657372577668962,-3.4270873718683097,-2.1613501141014133,24.824739670197758
0.10200000000000008,0.8494727775279164,1.2742091662918744,-3.4355571307144293,-2.161347964422555,24.716682214741496
0.10300000000000008,0.8552575819400446,1.282886372910067,-3.444232647781691,-2.1613462748716237,24.606679596651254
0.10400000000000008,0.8611987164379042,1.2917980746568563,-3.4531434649783384,-2.161345390321482,24.49453293650343
0.10500000000000008,0.8673158673332484,1.3009738009998726,-3.46231729439449,-2.1613434933946176,24.379814572525824
0.10600000000000008,0.8736261587266787,1.310439238090018,-3.4717816902295335,-2.1613424521395155,24.262030742740457
0.10700000000000008,0.880144540005572,1.320216810008358,-3.4815572035271716,-2.1613403935188136,24.141115450734606
0.10800000000000008,0.8868854470684492,1.3303281706026737,-3.4916677390328874,-2.1613395684302135,24.01661023551431
0.10900000000000008,0.8938614528993656,1.3407921793490485,-3.5021302724818932,-2.1613380931328448,23.88872952218538
0.11000000000000008,0.9010846756470713,1.3516270134706068,-3.51296407753419,-2.161337064063583,23.757298070778607
0.11100000000000008,0.9085654039021026,1.3628481058531539,-3.524184196436445,-2.161336090583291,23.621674387690714
0.11200000000000009,0.9163138850400131,1.3744708275600195,-3.5358063532754844,-2.1613355257154647,23.482373463551678
0.11300000000000009,0.9243392827569695,1.3865089241354542,-3.5478435587690282,-2.161334634633574,23.339118525947057
0.11400000000000009,0.9326467537460353,1.398970130619053,-3.5603043197486133,-2.16133418912956,23.191167694675027
0.11500000000000009,0.941241252272747,1.4118618784091206,-3.5731959196649856,-2.161334041255865,23.03926346683632
0.11600000000000009,0.9501262677356913,1.425189401603537,-3.586523320148135,-2.1613339185445977,22.882625136752594
0.11700000000000009,0.9593033741744721,1.4389550612617081,-3.600289169060495,-2.1613341077987873,22.72155037088816
0.11800000000000009,0.9687745065260752,1.4531617597891129,-3.614496759620857,-2.1613349998317437,22.556193496015187
0.11900000000000009,0.9785399548799335,1.4678099323199003,-3.629145486272689,-2.161335553952789,22.38656870331507
0.12000000000000009,0.9885970909647706,1.4828956364471557,-3.644231207627953,-2.161335571180797,22.212712514985224
0.1210000000000001,0.9989429054242379,1.498414358136357,-3.659750099703944,-2.161335741567587,22.03492419401199
0.1220000000000001,1.00957242436836,1.5143586365525399,-3.6756949005637485,-2.1613362640112084,21.852467584882376
0.1230000000000001,1.0204790949486848,1.530718642423027,-3.692055624876469,-2.161336982453442,21.666009075244116
0.1240000000000001,1.0316574127889182,1.5474861191833773,-3.708824274026404,-2.1613381548430266,21.475906290869993
0.12500000000000008,1.0430997714770354,1.564649657215553,-3.725988505641524,-2.1613388484259706,21.28188733670145
0.12600000000000008,1.054795809739854,1.582193714609781,-3.7435333381940024,-2.1613396235842215,21.084024523519215
0.12700000000000009,1.06673541503476,1.60010312255214,-3.761444436390776,-2.161341313838636,20.88264989236296
0.12800000000000009,1.0789065428714584,1.6183598143071876,-3.779702646544305,-2.1613428322371173,20.67787037834104
0.1290000000000001,1.0912957823186462,1.6369436734779694,-3.7982883883842216,-2.161344714906252,20.47005215669944
0.1300000000000001,1.103889582704494,1.6558343740567412,-3.817179690176569,-2.1613453161198275,20.25925177558337
0.1310000000000001,1.1166735547282474,1.675010332092371,-3.836357405652952,-2.161347073560581,20.04594367756889
0.1320000000000001,1.1296323002885031,1.6944484504327548,-3.855797961388962,-2.1613495109562075,19.830373695625962
0.1330000000000001,1.142748346613889,1.7141225199208336,-3.8754735711248998,-2.161351051204066,19.612395783169685
0.1340000000000001,1.156004751695239,1.7340071275428586,-3.895360001137678,-2.1613528735948195,19.392359245845395
0.1350000000000001,1.1693840193067666,1.7540760289601498,-3.915430701650937,-2.1613546726907873,19.17111187647654
0.1360000000000001,1.1828669596526988,1.7743004394790485,-3.935656891639567,-2.1613564521605184,18.948373131578013
0.1370000000000001,1.1964350525863954,1.7946525788795928,-3.956011378245049,-2.161358799365456,18.724681786661503
0.1380000000000001,1.2100687162092212,1.8151030743138319,-3.9764642110143806,-2.161361136700549,18.50009644093672
0.1390000000000001,1.22374752647225,1.835621289708375,-3.996983891044865,-2.16136260133649,18.2750069799256
0.1400000000000001,1.2374519600565255,1.8561779400847882,-4.017543122151317,-2.161365182066529,18.04996623016693
0.1410000000000001,1.2511623900950672,1.8767435851426006,-4.038111111441406,-2.1613675262988057,17.825206870673938
0.1420000000000001,1.2648589899218732,1.8972884848828098,-4.058657954582762,-2.1613694696999524,17.601287672167324
0.1430000000000001,1.2785206821737516,1.9177810232606274,-4.079152673429133,-2.161371650168505,17.377467380749465
0.1440000000000001,1.2921270142991295,1.9381905214486943,-4.099564380337553,-2.16137385888886,17.155198594591383
0.1450000000000001,1.3056572324444284,1.9584858486666425,-4.119861464742387,-2.1613756160757442,16.934387633850513
0.1460000000000001,1.3190909089256466,1.97863636338847,-4.140014233342774,-2.1613778699543045,16.71517986278435
0.1470000000000001,1.3324088638890474,1.9986132958335712,-4.159993647737067,-2.161380351903496,16.497959694248916
0.1480000000000001,1.3455914289344284,2.0183871434016427,-4.179770446669571,-2.161383303267928,16.28294351731905
0.1490000000000001,1.3586201300467546,2.037930195070132,-4.199315587192535,-2.161385392122403,16.070991345672066
0.1500000000000001,1.3714756569944728,2.057213485491709,-4.218600391630575,-2.161386906138866,15.861654542044876
0.1510000000000001,1.3841396206330485,2.076209430949573,-4.2375980917245455,-2.161388660774973,15.656181768131926
0.1520000000000001,1.3965957451483444,2.0948936177225166,-4.256283101163466,-2.161389483440949,15.453860204200472
0.1530000000000001,1.4088271632831004,2.1132407449246506,-4.274633162070406,-2.1613924171457546,15.25534637549245
0.1540000000000001,1.4208174149744186,2.131226122461628,-4.292619353617359,-2.1613932311557313,15.060721450916446
0.1550000000000001,1.4325513913263577,2.1488270869895367,-4.310221645568656,-2.161394558579119,14.870048739395454
0.1560000000000001,1.4440141994888782,2.1660212992333174,-4.327416292550957,-2.16139499331764,14.683788804646346
0.1570000000000001,1.4551922275965847,2.182788341394877,-4.344183215847916,-2.161394874453039,14.502305766805941
0.1580000000000001,1.4660732955786122,2.1991099433679184,-4.360506828355723,-2.1613968849878042,14.325460184960926
0.1590000000000001,1.4766450602734298,2.214967590410145,-4.37636500447479,-2.1613974140646457,14.153836266864154
0.16000000000000011,1.486896908360096,2.230345362540144,-4.391743930081451,-2.1613985675413065,13.987430793502844
0.16100000000000012,1.4968188199561439,2.245228229934216,-4.406627428483227,-2.1613991985490113,13.825986121715415
0.16200000000000012,1.506399627606361,2.259599441409541,-4.420999574485507,-2.161400133075966,13.67004614628286
0.16300000000000012,1.5156307515720797,2.2734461273581195,-4.4348476141716,-2.1614014868134808,13.519653873655223
0.16400000000000012,1.5245083887429625,2.286762583114444,-4.44816554381077,-2.1614029606963268,13.375731667771161
0.16500000000000012,1.5330257912511842,2.2995386868767764,-4.460943514112141,-2.161404827235364,13.236837919421092
0.16600000000000012,1.541173635601593,2.3117604534023894,-4.473165785620819,-2.1614053322184295,13.103721998115393
0.16700000000000012,1.5489454108081708,2.323418116212256,-4.484823817352504,-2.1614057011402483,12.976471043768967
0.16800000000000012,1.5563347313117022,2.334502096967553,-4.495908275848727,-2.1614061788811743,12.855573403277457
0.16900000000000012,1.5633353055599712,2.3450029583399568,-4.506409980064332,-2.1614070217243744,12.740374525994097
0.17000000000000012,1.569942996081049,2.3549144941215734,-4.516323233556869,-2.1614087394352954,12.631677049660581
0.17100000000000012,1.5761543356660959,2.364231503499144,-4.525640635232656,-2.1614091317335125,12.528899756510757
0.17200000000000013,1.5819629012526304,2.3729443518789455,-4.534354394236117,-2.1614100423571716,12.432516285054323
0.17300000000000013,1.5873634039324134,2.38104510589862,-4.542455274266439,-2.1614101683678193,12.342674339282645
